#Collected Data-36
#Intensity_unit=counts
#Attenuator_coefficient=1.000000
20.0000 19.0000
20.0100 23.0000
20.0200 17.0000
20.0300 20.0000
20.0400 30.0000
20.0500 25.0000
20.0600 34.0000
20.0700 21.0000
20.0800 14.0000
20.0900 22.0000
20.1000 21.0000
20.1100 26.0000
20.1200 23.0000
20.1300 18.0000
20.1400 27.0000
20.1500 28.0000
20.1600 31.0000
20.1700 33.0000
20.1800 19.0000
20.1900 21.0000
20.2000 18.0000
20.2100 28.0000
20.2200 22.0000
20.2300 18.0000
20.2400 28.0000
20.2500 29.0000
20.2600 25.0000
20.2700 27.0000
20.2800 23.0000
20.2900 28.0000
20.3000 12.0000
20.3100 35.0000
20.3200 26.0000
20.3300 19.0000
20.3400 23.0000
20.3500 27.0000
20.3600 18.0000
20.3700 32.0000
20.3800 21.0000
20.3900 26.0000
20.4000 19.0000
20.4100 18.0000
20.4200 17.0000
20.4300 26.0000
20.4400 19.0000
20.4500 23.0000
20.4600 24.0000
20.4700 21.0000
20.4800 20.0000
20.4900 15.0000
20.5000 16.0000
20.5100 21.0000
20.5200 24.0000
20.5300 24.0000
20.5400 20.0000
20.5500 35.0000
20.5600 25.0000
20.5700 20.0000
20.5800 17.0000
20.5900 12.0000
20.6000 19.0000
20.6100 26.0000
20.6200 26.0000
20.6300 22.0000
20.6400 26.0000
20.6500 23.0000
20.6600 22.0000
20.6700 22.0000
20.6800 20.0000
20.6900 24.0000
20.7000 26.0000
20.7100 20.0000
20.7200 31.0000
20.7300 30.0000
20.7400 23.0000
20.7500 23.0000
20.7600 25.0000
20.7700 25.0000
20.7800 19.0000
20.7900 17.0000
20.8000 21.0000
20.8100 29.0000
20.8200 25.0000
20.8300 19.0000
20.8400 16.0000
20.8500 25.0000
20.8600 20.0000
20.8700 28.0000
20.8800 19.0000
20.8900 13.0000
20.9000 18.0000
20.9100 18.0000
20.9200 27.0000
20.9300 28.0000
20.9400 29.0000
20.9500 24.0000
20.9600 24.0000
20.9700 30.0000
20.9800 24.0000
20.9900 16.0000
21.0000 18.0000
21.0100 15.0000
21.0200 24.0000
21.0300 26.0000
21.0400 20.0000
21.0500 19.0000
21.0600 23.0000
21.0700 15.0000
21.0800 17.0000
21.0900 22.0000
21.1000 21.0000
21.1100 27.0000
21.1200 20.0000
21.1300 15.0000
21.1400 28.0000
21.1500 21.0000
21.1600 26.0000
21.1700 19.0000
21.1800 22.0000
21.1900 15.0000
21.2000 24.0000
21.2100 21.0000
21.2200 19.0000
21.2300 27.0000
21.2400 25.0000
21.2500 18.0000
21.2600 26.0000
21.2700 26.0000
21.2800 20.0000
21.2900 14.0000
21.3000 15.0000
21.3100 21.0000
21.3200 18.0000
21.3300 18.0000
21.3400 19.0000
21.3500 23.0000
21.3600 19.0000
21.3700 17.0000
21.3800 26.0000
21.3900 23.0000
21.4000 29.0000
21.4100 24.0000
21.4200 22.0000
21.4300 24.0000
21.4400 23.0000
21.4500 28.0000
21.4600 19.0000
21.4700 23.0000
21.4800 25.0000
21.4900 19.0000
21.5000 20.0000
21.5100 26.0000
21.5200 26.0000
21.5300 16.0000
21.5400 26.0000
21.5500 18.0000
21.5600 24.0000
21.5700 25.0000
21.5800 17.0000
21.5900 19.0000
21.6000 15.0000
21.6100 23.0000
21.6200 18.0000
21.6300 25.0000
21.6400 23.0000
21.6500 26.0000
21.6600 20.0000
21.6700 20.0000
21.6800 23.0000
21.6900 18.0000
21.7000 23.0000
21.7100 23.0000
21.7200 17.0000
21.7300 20.0000
21.7400 15.0000
21.7500 23.0000
21.7600 16.0000
21.7700 23.0000
21.7800 19.0000
21.7900 22.0000
21.8000 18.0000
21.8100 24.0000
21.8200 23.0000
21.8300 20.0000
21.8400 27.0000
21.8500 27.0000
21.8600 29.0000
21.8700 17.0000
21.8800 18.0000
21.8900 27.0000
21.9000 18.0000
21.9100 19.0000
21.9200 18.0000
21.9300 21.0000
21.9400 27.0000
21.9500 21.0000
21.9600 24.0000
21.9700 23.0000
21.9800 22.0000
21.9900 22.0000
22.0000 22.0000
22.0100 16.0000
22.0200 17.0000
22.0300 27.0000
22.0400 33.0000
22.0500 22.0000
22.0600 20.0000
22.0700 26.0000
22.0800 19.0000
22.0900 22.0000
22.1000 23.0000
22.1100 14.0000
22.1200 12.0000
22.1300 16.0000
22.1400 30.0000
22.1500 18.0000
22.1600 26.0000
22.1700 13.0000
22.1800 13.0000
22.1900 13.0000
22.2000 19.0000
22.2100 24.0000
22.2200 19.0000
22.2300 19.0000
22.2400 23.0000
22.2500 19.0000
22.2600 16.0000
22.2700 22.0000
22.2800 19.0000
22.2900 21.0000
22.3000 24.0000
22.3100 22.0000
22.3200 15.0000
22.3300 18.0000
22.3400 18.0000
22.3500 17.0000
22.3600 18.0000
22.3700 19.0000
22.3800 19.0000
22.3900 21.0000
22.4000 19.0000
22.4100 20.0000
22.4200 21.0000
22.4300 16.0000
22.4400 16.0000
22.4500 17.0000
22.4600 20.0000
22.4700 17.0000
22.4800 21.0000
22.4900 25.0000
22.5000 18.0000
22.5100 19.0000
22.5200 17.0000
22.5300 16.0000
22.5400 17.0000
22.5500 28.0000
22.5600 23.0000
22.5700 22.0000
22.5800 20.0000
22.5900 10.0000
22.6000 21.0000
22.6100 29.0000
22.6200 20.0000
22.6300 23.0000
22.6400 21.0000
22.6500 24.0000
22.6600 29.0000
22.6700 22.0000
22.6800 17.0000
22.6900 17.0000
22.7000 26.0000
22.7100 19.0000
22.7200 21.0000
22.7300 17.0000
22.7400 25.0000
22.7500 21.0000
22.7600 15.0000
22.7700 19.0000
22.7800 25.0000
22.7900 18.0000
22.8000 18.0000
22.8100 18.0000
22.8200 13.0000
22.8300 28.0000
22.8400 22.0000
22.8500 16.0000
22.8600 11.0000
22.8700 23.0000
22.8800 22.0000
22.8900 16.0000
22.9000 12.0000
22.9100 24.0000
22.9200 18.0000
22.9300 24.0000
22.9400 18.0000
22.9500 23.0000
22.9600 20.0000
22.9700 24.0000
22.9800 22.0000
22.9900 21.0000
23.0000 19.0000
23.0100 23.0000
23.0200 21.0000
23.0300 17.0000
23.0400 24.0000
23.0500 24.0000
23.0600 10.0000
23.0700 17.0000
23.0800 17.0000
23.0900 14.0000
23.1000 23.0000
23.1100 21.0000
23.1200 21.0000
23.1300 20.0000
23.1400 23.0000
23.1500 21.0000
23.1600 16.0000
23.1700 21.0000
23.1800 24.0000
23.1900 28.0000
23.2000 18.0000
23.2100 22.0000
23.2200 19.0000
23.2300 22.0000
23.2400 23.0000
23.2500 21.0000
23.2600 16.0000
23.2700 17.0000
23.2800 19.0000
23.2900 15.0000
23.3000 14.0000
23.3100 17.0000
23.3200 18.0000
23.3300 21.0000
23.3400 23.0000
23.3500 19.0000
23.3600 15.0000
23.3700 18.0000
23.3800 16.0000
23.3900 18.0000
23.4000 19.0000
23.4100 19.0000
23.4200 19.0000
23.4300 21.0000
23.4400 22.0000
23.4500 19.0000
23.4600 14.0000
23.4700 13.0000
23.4800 13.0000
23.4900 20.0000
23.5000 19.0000
23.5100 16.0000
23.5200 29.0000
23.5300 16.0000
23.5400 19.0000
23.5500 17.0000
23.5600 12.0000
23.5700 26.0000
23.5800 18.0000
23.5900 18.0000
23.6000 19.0000
23.6100 10.0000
23.6200 12.0000
23.6300 20.0000
23.6400 23.0000
23.6500 14.0000
23.6600 24.0000
23.6700 20.0000
23.6800 17.0000
23.6900 16.0000
23.7000 23.0000
23.7100 19.0000
23.7200 13.0000
23.7300 19.0000
23.7400 25.0000
23.7500 21.0000
23.7600 23.0000
23.7700 24.0000
23.7800 18.0000
23.7900 28.0000
23.8000 24.0000
23.8100 21.0000
23.8200 19.0000
23.8300 20.0000
23.8400 21.0000
23.8500 25.0000
23.8600 27.0000
23.8700 24.0000
23.8800 16.0000
23.8900 18.0000
23.9000 18.0000
23.9100 19.0000
23.9200 27.0000
23.9300 21.0000
23.9400 19.0000
23.9500 13.0000
23.9600 19.0000
23.9700 15.0000
23.9800 15.0000
23.9900 16.0000
24.0000 20.0000
24.0100 20.0000
24.0200 15.0000
24.0300 10.0000
24.0400 16.0000
24.0500 18.0000
24.0600 22.0000
24.0700 19.0000
24.0800 15.0000
24.0900 19.0000
24.1000 20.0000
24.1100 18.0000
24.1200 13.0000
24.1300 13.0000
24.1400 14.0000
24.1500 17.0000
24.1600 15.0000
24.1700 18.0000
24.1800 19.0000
24.1900 19.0000
24.2000 7.0000
24.2100 14.0000
24.2200 20.0000
24.2300 19.0000
24.2400 23.0000
24.2500 22.0000
24.2600 20.0000
24.2700 16.0000
24.2800 22.0000
24.2900 21.0000
24.3000 19.0000
24.3100 19.0000
24.3200 14.0000
24.3300 22.0000
24.3400 16.0000
24.3500 17.0000
24.3600 17.0000
24.3700 23.0000
24.3800 17.0000
24.3900 15.0000
24.4000 15.0000
24.4100 14.0000
24.4200 16.0000
24.4300 22.0000
24.4400 25.0000
24.4500 23.0000
24.4600 17.0000
24.4700 20.0000
24.4800 22.0000
24.4900 25.0000
24.5000 19.0000
24.5100 14.0000
24.5200 15.0000
24.5300 15.0000
24.5400 20.0000
24.5500 12.0000
24.5600 20.0000
24.5700 17.0000
24.5800 20.0000
24.5900 11.0000
24.6000 17.0000
24.6100 24.0000
24.6200 14.0000
24.6300 15.0000
24.6400 17.0000
24.6500 18.0000
24.6600 10.0000
24.6700 21.0000
24.6800 16.0000
24.6900 18.0000
24.7000 15.0000
24.7100 11.0000
24.7200 12.0000
24.7300 16.0000
24.7400 16.0000
24.7500 17.0000
24.7600 21.0000
24.7700 18.0000
24.7800 13.0000
24.7900 15.0000
24.8000 18.0000
24.8100 16.0000
24.8200 9.0000
24.8300 17.0000
24.8400 11.0000
24.8500 25.0000
24.8600 14.0000
24.8700 15.0000
24.8800 20.0000
24.8900 24.0000
24.9000 19.0000
24.9100 19.0000
24.9200 20.0000
24.9300 15.0000
24.9400 16.0000
24.9500 17.0000
24.9600 16.0000
24.9700 20.0000
24.9800 14.0000
24.9900 16.0000
25.0000 15.0000
25.0100 17.0000
25.0200 14.0000
25.0300 17.0000
25.0400 20.0000
25.0500 12.0000
25.0600 14.0000
25.0700 14.0000
25.0800 23.0000
25.0900 11.0000
25.1000 13.0000
25.1100 9.0000
25.1200 16.0000
25.1300 21.0000
25.1400 19.0000
25.1500 10.0000
25.1600 14.0000
25.1700 9.0000
25.1800 18.0000
25.1900 17.0000
25.2000 13.0000
25.2100 24.0000
25.2200 17.0000
25.2300 15.0000
25.2400 16.0000
25.2500 20.0000
25.2600 19.0000
25.2700 18.0000
25.2800 20.0000
25.2900 15.0000
25.3000 19.0000
25.3100 20.0000
25.3200 16.0000
25.3300 13.0000
25.3400 11.0000
25.3500 20.0000
25.3600 15.0000
25.3700 18.0000
25.3800 24.0000
25.3900 24.0000
25.4000 19.0000
25.4100 10.0000
25.4200 15.0000
25.4300 14.0000
25.4400 13.0000
25.4500 13.0000
25.4600 14.0000
25.4700 18.0000
25.4800 16.0000
25.4900 16.0000
25.5000 15.0000
25.5100 22.0000
25.5200 19.0000
25.5300 18.0000
25.5400 16.0000
25.5500 14.0000
25.5600 14.0000
25.5700 15.0000
25.5800 23.0000
25.5900 16.0000
25.6000 17.0000
25.6100 25.0000
25.6200 21.0000
25.6300 13.0000
25.6400 14.0000
25.6500 20.0000
25.6600 20.0000
25.6700 14.0000
25.6800 20.0000
25.6900 20.0000
25.7000 18.0000
25.7100 16.0000
25.7200 15.0000
25.7300 14.0000
25.7400 18.0000
25.7500 17.0000
25.7600 12.0000
25.7700 17.0000
25.7800 13.0000
25.7900 16.0000
25.8000 15.0000
25.8100 19.0000
25.8200 16.0000
25.8300 21.0000
25.8400 24.0000
25.8500 19.0000
25.8600 17.0000
25.8700 10.0000
25.8800 14.0000
25.8900 19.0000
25.9000 21.0000
25.9100 19.0000
25.9200 15.0000
25.9300 15.0000
25.9400 15.0000
25.9500 15.0000
25.9600 13.0000
25.9700 12.0000
25.9800 15.0000
25.9900 24.0000
26.0000 16.0000
26.0100 13.0000
26.0200 10.0000
26.0300 18.0000
26.0400 13.0000
26.0500 15.0000
26.0600 20.0000
26.0700 26.0000
26.0800 16.0000
26.0900 11.0000
26.1000 18.0000
26.1100 22.0000
26.1200 15.0000
26.1300 21.0000
26.1400 20.0000
26.1500 16.0000
26.1600 19.0000
26.1700 17.0000
26.1800 9.0000
26.1900 19.0000
26.2000 16.0000
26.2100 18.0000
26.2200 10.0000
26.2300 15.0000
26.2400 14.0000
26.2500 10.0000
26.2600 13.0000
26.2700 16.0000
26.2800 8.0000
26.2900 13.0000
26.3000 13.0000
26.3100 16.0000
26.3200 9.0000
26.3300 16.0000
26.3400 12.0000
26.3500 19.0000
26.3600 15.0000
26.3700 14.0000
26.3800 19.0000
26.3900 12.0000
26.4000 23.0000
26.4100 14.0000
26.4200 17.0000
26.4300 20.0000
26.4400 18.0000
26.4500 20.0000
26.4600 13.0000
26.4700 14.0000
26.4800 20.0000
26.4900 14.0000
26.5000 14.0000
26.5100 11.0000
26.5200 19.0000
26.5300 12.0000
26.5400 12.0000
26.5500 14.0000
26.5600 16.0000
26.5700 17.0000
26.5800 17.0000
26.5900 13.0000
26.6000 18.0000
26.6100 11.0000
26.6200 17.0000
26.6300 12.0000
26.6400 16.0000
26.6500 10.0000
26.6600 14.0000
26.6700 23.0000
26.6800 19.0000
26.6900 12.0000
26.7000 22.0000
26.7100 15.0000
26.7200 13.0000
26.7300 9.0000
26.7400 15.0000
26.7500 18.0000
26.7600 10.0000
26.7700 11.0000
26.7800 10.0000
26.7900 17.0000
26.8000 18.0000
26.8100 20.0000
26.8200 18.0000
26.8300 15.0000
26.8400 25.0000
26.8500 13.0000
26.8600 12.0000
26.8700 14.0000
26.8800 18.0000
26.8900 12.0000
26.9000 14.0000
26.9100 14.0000
26.9200 19.0000
26.9300 14.0000
26.9400 12.0000
26.9500 13.0000
26.9600 14.0000
26.9700 17.0000
26.9800 14.0000
26.9900 10.0000
27.0000 23.0000
27.0100 18.0000
27.0200 18.0000
27.0300 16.0000
27.0400 17.0000
27.0500 16.0000
27.0600 14.0000
27.0700 17.0000
27.0800 17.0000
27.0900 19.0000
27.1000 19.0000
27.1100 13.0000
27.1200 13.0000
27.1300 9.0000
27.1400 13.0000
27.1500 22.0000
27.1600 20.0000
27.1700 13.0000
27.1800 15.0000
27.1900 15.0000
27.2000 7.0000
27.2100 15.0000
27.2200 18.0000
27.2300 12.0000
27.2400 11.0000
27.2500 17.0000
27.2600 12.0000
27.2700 8.0000
27.2800 16.0000
27.2900 15.0000
27.3000 16.0000
27.3100 15.0000
27.3200 16.0000
27.3300 16.0000
27.3400 18.0000
27.3500 20.0000
27.3600 22.0000
27.3700 12.0000
27.3800 8.0000
27.3900 18.0000
27.4000 14.0000
27.4100 14.0000
27.4200 12.0000
27.4300 8.0000
27.4400 13.0000
27.4500 8.0000
27.4600 8.0000
27.4700 16.0000
27.4800 10.0000
27.4900 22.0000
27.5000 13.0000
27.5100 12.0000
27.5200 14.0000
27.5300 13.0000
27.5400 16.0000
27.5500 19.0000
27.5600 7.0000
27.5700 9.0000
27.5800 10.0000
27.5900 12.0000
27.6000 8.0000
27.6100 20.0000
27.6200 18.0000
27.6300 17.0000
27.6400 12.0000
27.6500 10.0000
27.6600 8.0000
27.6700 9.0000
27.6800 9.0000
27.6900 14.0000
27.7000 10.0000
27.7100 14.0000
27.7200 16.0000
27.7300 13.0000
27.7400 9.0000
27.7500 11.0000
27.7600 12.0000
27.7700 15.0000
27.7800 15.0000
27.7900 13.0000
27.8000 18.0000
27.8100 6.0000
27.8200 10.0000
27.8300 13.0000
27.8400 15.0000
27.8500 14.0000
27.8600 12.0000
27.8700 11.0000
27.8800 17.0000
27.8900 21.0000
27.9000 19.0000
27.9100 18.0000
27.9200 14.0000
27.9300 15.0000
27.9400 12.0000
27.9500 10.0000
27.9600 5.0000
27.9700 5.0000
27.9800 9.0000
27.9900 8.0000
28.0000 14.0000
28.0100 16.0000
28.0200 12.0000
28.0300 18.0000
28.0400 18.0000
28.0500 10.0000
28.0600 17.0000
28.0700 12.0000
28.0800 17.0000
28.0900 9.0000
28.1000 9.0000
28.1100 13.0000
28.1200 14.0000
28.1300 15.0000
28.1400 16.0000
28.1500 17.0000
28.1600 13.0000
28.1700 9.0000
28.1800 11.0000
28.1900 15.0000
28.2000 19.0000
28.2100 13.0000
28.2200 17.0000
28.2300 13.0000
28.2400 11.0000
28.2500 13.0000
28.2600 9.0000
28.2700 10.0000
28.2800 11.0000
28.2900 9.0000
28.3000 10.0000
28.3100 14.0000
28.3200 15.0000
28.3300 11.0000
28.3400 17.0000
28.3500 18.0000
28.3600 13.0000
28.3700 11.0000
28.3800 13.0000
28.3900 12.0000
28.4000 10.0000
28.4100 11.0000
28.4200 10.0000
28.4300 11.0000
28.4400 8.0000
28.4500 9.0000
28.4600 8.0000
28.4700 13.0000
28.4800 14.0000
28.4900 8.0000
28.5000 12.0000
28.5100 12.0000
28.5200 11.0000
28.5300 15.0000
28.5400 9.0000
28.5500 9.0000
28.5600 7.0000
28.5700 9.0000
28.5800 10.0000
28.5900 11.0000
28.6000 15.0000
28.6100 14.0000
28.6200 13.0000
28.6300 7.0000
28.6400 10.0000
28.6500 14.0000
28.6600 13.0000
28.6700 10.0000
28.6800 10.0000
28.6900 11.0000
28.7000 21.0000
28.7100 11.0000
28.7200 14.0000
28.7300 13.0000
28.7400 10.0000
28.7500 17.0000
28.7600 15.0000
28.7700 11.0000
28.7800 11.0000
28.7900 10.0000
28.8000 12.0000
28.8100 16.0000
28.8200 16.0000
28.8300 13.0000
28.8400 13.0000
28.8500 15.0000
28.8600 15.0000
28.8700 13.0000
28.8800 11.0000
28.8900 14.0000
28.9000 9.0000
28.9100 14.0000
28.9200 19.0000
28.9300 13.0000
28.9400 15.0000
28.9500 9.0000
28.9600 13.0000
28.9700 13.0000
28.9800 10.0000
28.9900 7.0000
29.0000 6.0000
29.0100 12.0000
29.0200 11.0000
29.0300 7.0000
29.0400 8.0000
29.0500 13.0000
29.0600 11.0000
29.0700 11.0000
29.0800 15.0000
29.0900 11.0000
29.1000 15.0000
29.1100 12.0000
29.1200 13.0000
29.1300 15.0000
29.1400 17.0000
29.1500 13.0000
29.1600 14.0000
29.1700 13.0000
29.1800 17.0000
29.1900 14.0000
29.2000 16.0000
29.2100 14.0000
29.2200 14.0000
29.2300 16.0000
29.2400 13.0000
29.2500 12.0000
29.2600 12.0000
29.2700 10.0000
29.2800 15.0000
29.2900 14.0000
29.3000 13.0000
29.3100 11.0000
29.3200 12.0000
29.3300 9.0000
29.3400 16.0000
29.3500 13.0000
29.3600 26.0000
29.3700 18.0000
29.3800 16.0000
29.3900 22.0000
29.4000 15.0000
29.4100 19.0000
29.4200 16.0000
29.4300 13.0000
29.4400 12.0000
29.4500 12.0000
29.4600 12.0000
29.4700 17.0000
29.4800 10.0000
29.4900 9.0000
29.5000 9.0000
29.5100 13.0000
29.5200 8.0000
29.5300 15.0000
29.5400 10.0000
29.5500 10.0000
29.5600 13.0000
29.5700 15.0000
29.5800 15.0000
29.5900 8.0000
29.6000 8.0000
29.6100 9.0000
29.6200 11.0000
29.6300 13.0000
29.6400 12.0000
29.6500 7.0000
29.6600 11.0000
29.6700 9.0000
29.6800 14.0000
29.6900 12.0000
29.7000 12.0000
29.7100 13.0000
29.7200 8.0000
29.7300 13.0000
29.7400 11.0000
29.7500 10.0000
29.7600 12.0000
29.7700 12.0000
29.7800 13.0000
29.7900 12.0000
29.8000 12.0000
29.8100 11.0000
29.8200 13.0000
29.8300 6.0000
29.8400 10.0000
29.8500 13.0000
29.8600 9.0000
29.8700 12.0000
29.8800 12.0000
29.8900 13.0000
29.9000 4.0000
29.9100 14.0000
29.9200 10.0000
29.9300 8.0000
29.9400 15.0000
29.9500 13.0000
29.9600 12.0000
29.9700 14.0000
29.9800 10.0000
29.9900 18.0000
30.0000 18.0000
30.0100 12.0000
30.0200 14.0000
30.0300 11.0000
30.0400 15.0000
30.0500 7.0000
30.0600 7.0000
30.0700 10.0000
30.0800 11.0000
30.0900 10.0000
30.1000 8.0000
30.1100 12.0000
30.1200 13.0000
30.1300 12.0000
30.1400 12.0000
30.1500 6.0000
30.1600 12.0000
30.1700 16.0000
30.1800 10.0000
30.1900 17.0000
30.2000 11.0000
30.2100 10.0000
30.2200 9.0000
30.2300 15.0000
30.2400 10.0000
30.2500 7.0000
30.2600 16.0000
30.2700 7.0000
30.2800 16.0000
30.2900 10.0000
30.3000 12.0000
30.3100 12.0000
30.3200 5.0000
30.3300 8.0000
30.3400 12.0000
30.3500 8.0000
30.3600 14.0000
30.3700 14.0000
30.3800 10.0000
30.3900 10.0000
30.4000 16.0000
30.4100 9.0000
30.4200 8.0000
30.4300 10.0000
30.4400 10.0000
30.4500 13.0000
30.4600 13.0000
30.4700 14.0000
30.4800 11.0000
30.4900 6.0000
30.5000 10.0000
30.5100 14.0000
30.5200 12.0000
30.5300 20.0000
30.5400 8.0000
30.5500 11.0000
30.5600 10.0000
30.5700 12.0000
30.5800 8.0000
30.5900 7.0000
30.6000 13.0000
30.6100 9.0000
30.6200 9.0000
30.6300 9.0000
30.6400 7.0000
30.6500 11.0000
30.6600 8.0000
30.6700 10.0000
30.6800 5.0000
30.6900 13.0000
30.7000 7.0000
30.7100 8.0000
30.7200 12.0000
30.7300 13.0000
30.7400 18.0000
30.7500 8.0000
30.7600 9.0000
30.7700 12.0000
30.7800 9.0000
30.7900 5.0000
30.8000 12.0000
30.8100 8.0000
30.8200 9.0000
30.8300 12.0000
30.8400 9.0000
30.8500 9.0000
30.8600 7.0000
30.8700 9.0000
30.8800 16.0000
30.8900 8.0000
30.9000 13.0000
30.9100 11.0000
30.9200 6.0000
30.9300 11.0000
30.9400 12.0000
30.9500 8.0000
30.9600 14.0000
30.9700 13.0000
30.9800 9.0000
30.9900 15.0000
31.0000 11.0000
31.0100 12.0000
31.0200 12.0000
31.0300 12.0000
31.0400 9.0000
31.0500 13.0000
31.0600 12.0000
31.0700 9.0000
31.0800 11.0000
31.0900 8.0000
31.1000 12.0000
31.1100 13.0000
31.1200 11.0000
31.1300 15.0000
31.1400 8.0000
31.1500 13.0000
31.1600 8.0000
31.1700 13.0000
31.1800 12.0000
31.1900 8.0000
31.2000 9.0000
31.2100 10.0000
31.2200 7.0000
31.2300 10.0000
31.2400 10.0000
31.2500 11.0000
31.2600 5.0000
31.2700 8.0000
31.2800 6.0000
31.2900 11.0000
31.3000 7.0000
31.3100 10.0000
31.3200 12.0000
31.3300 4.0000
31.3400 9.0000
31.3500 11.0000
31.3600 12.0000
31.3700 14.0000
31.3800 16.0000
31.3900 13.0000
31.4000 10.0000
31.4100 15.0000
31.4200 8.0000
31.4300 13.0000
31.4400 10.0000
31.4500 9.0000
31.4600 11.0000
31.4700 9.0000
31.4800 12.0000
31.4900 9.0000
31.5000 19.0000
31.5100 9.0000
31.5200 14.0000
31.5300 11.0000
31.5400 13.0000
31.5500 13.0000
31.5600 9.0000
31.5700 12.0000
31.5800 14.0000
31.5900 8.0000
31.6000 8.0000
31.6100 11.0000
31.6200 12.0000
31.6300 10.0000
31.6400 9.0000
31.6500 9.0000
31.6600 9.0000
31.6700 11.0000
31.6800 7.0000
31.6900 7.0000
31.7000 14.0000
31.7100 9.0000
31.7200 11.0000
31.7300 13.0000
31.7400 11.0000
31.7500 8.0000
31.7600 8.0000
31.7700 12.0000
31.7800 9.0000
31.7900 11.0000
31.8000 13.0000
31.8100 10.0000
31.8200 15.0000
31.8300 9.0000
31.8400 9.0000
31.8500 9.0000
31.8600 13.0000
31.8700 11.0000
31.8800 12.0000
31.8900 9.0000
31.9000 5.0000
31.9100 5.0000
31.9200 12.0000
31.9300 9.0000
31.9400 17.0000
31.9500 10.0000
31.9600 7.0000
31.9700 11.0000
31.9800 9.0000
31.9900 9.0000
32.0000 10.0000
32.0100 13.0000
32.0200 12.0000
32.0300 15.0000
32.0400 10.0000
32.0500 10.0000
32.0600 12.0000
32.0700 10.0000
32.0800 10.0000
32.0900 15.0000
32.1000 5.0000
32.1100 10.0000
32.1200 7.0000
32.1300 16.0000
32.1400 10.0000
32.1500 13.0000
32.1600 10.0000
32.1700 9.0000
32.1800 11.0000
32.1900 12.0000
32.2000 9.0000
32.2100 10.0000
32.2200 13.0000
32.2300 16.0000
32.2400 10.0000
32.2500 12.0000
32.2600 11.0000
32.2700 11.0000
32.2800 4.0000
32.2900 4.0000
32.3000 6.0000
32.3100 16.0000
32.3200 14.0000
32.3300 9.0000
32.3400 10.0000
32.3500 10.0000
32.3600 12.0000
32.3700 13.0000
32.3800 8.0000
32.3900 11.0000
32.4000 13.0000
32.4100 14.0000
32.4200 12.0000
32.4300 9.0000
32.4400 12.0000
32.4500 10.0000
32.4600 15.0000
32.4700 12.0000
32.4800 10.0000
32.4900 11.0000
32.5000 9.0000
32.5100 7.0000
32.5200 13.0000
32.5300 13.0000
32.5400 6.0000
32.5500 8.0000
32.5600 11.0000
32.5700 8.0000
32.5800 10.0000
32.5900 10.0000
32.6000 5.0000
32.6100 8.0000
32.6200 9.0000
32.6300 15.0000
32.6400 5.0000
32.6500 8.0000
32.6600 13.0000
32.6700 8.0000
32.6800 9.0000
32.6900 7.0000
32.7000 8.0000
32.7100 10.0000
32.7200 11.0000
32.7300 8.0000
32.7400 5.0000
32.7500 6.0000
32.7600 5.0000
32.7700 10.0000
32.7800 10.0000
32.7900 9.0000
32.8000 10.0000
32.8100 7.0000
32.8200 17.0000
32.8300 10.0000
32.8400 10.0000
32.8500 3.0000
32.8600 9.0000
32.8700 4.0000
32.8800 4.0000
32.8900 13.0000
32.9000 7.0000
32.9100 10.0000
32.9200 5.0000
32.9300 7.0000
32.9400 8.0000
32.9500 13.0000
32.9600 10.0000
32.9700 8.0000
32.9800 6.0000
32.9900 14.0000
33.0000 11.0000
33.0100 14.0000
33.0200 10.0000
33.0300 5.0000
33.0400 7.0000
33.0500 6.0000
33.0600 9.0000
33.0700 10.0000
33.0800 10.0000
33.0900 9.0000
33.1000 12.0000
33.1100 8.0000
33.1200 9.0000
33.1300 12.0000
33.1400 9.0000
33.1500 14.0000
33.1600 8.0000
33.1700 13.0000
33.1800 13.0000
33.1900 9.0000
33.2000 9.0000
33.2100 7.0000
33.2200 8.0000
33.2300 4.0000
33.2400 7.0000
33.2500 9.0000
33.2600 10.0000
33.2700 9.0000
33.2800 7.0000
33.2900 9.0000
33.3000 12.0000
33.3100 11.0000
33.3200 10.0000
33.3300 11.0000
33.3400 10.0000
33.3500 8.0000
33.3600 9.0000
33.3700 15.0000
33.3800 9.0000
33.3900 9.0000
33.4000 13.0000
33.4100 8.0000
33.4200 14.0000
33.4300 11.0000
33.4400 7.0000
33.4500 9.0000
33.4600 6.0000
33.4700 7.0000
33.4800 7.0000
33.4900 6.0000
33.5000 4.0000
33.5100 10.0000
33.5200 11.0000
33.5300 8.0000
33.5400 7.0000
33.5500 7.0000
33.5600 12.0000
33.5700 5.0000
33.5800 11.0000
33.5900 7.0000
33.6000 10.0000
33.6100 6.0000
33.6200 11.0000
33.6300 10.0000
33.6400 10.0000
33.6500 7.0000
33.6600 8.0000
33.6700 9.0000
33.6800 10.0000
33.6900 6.0000
33.7000 12.0000
33.7100 9.0000
33.7200 8.0000
33.7300 8.0000
33.7400 7.0000
33.7500 7.0000
33.7600 7.0000
33.7700 11.0000
33.7800 9.0000
33.7900 13.0000
33.8000 9.0000
33.8100 15.0000
33.8200 6.0000
33.8300 3.0000
33.8400 6.0000
33.8500 14.0000
33.8600 11.0000
33.8700 7.0000
33.8800 10.0000
33.8900 6.0000
33.9000 7.0000
33.9100 4.0000
33.9200 10.0000
33.9300 7.0000
33.9400 9.0000
33.9500 8.0000
33.9600 5.0000
33.9700 8.0000
33.9800 5.0000
33.9900 6.0000
34.0000 11.0000
34.0100 7.0000
34.0200 7.0000
34.0300 10.0000
34.0400 9.0000
34.0500 8.0000
34.0600 7.0000
34.0700 13.0000
34.0800 11.0000
34.0900 6.0000
34.1000 3.0000
34.1100 9.0000
34.1200 14.0000
34.1300 8.0000
34.1400 12.0000
34.1500 11.0000
34.1600 13.0000
34.1700 12.0000
34.1800 13.0000
34.1900 10.0000
34.2000 5.0000
34.2100 9.0000
34.2200 6.0000
34.2300 8.0000
34.2400 8.0000
34.2500 5.0000
34.2600 7.0000
34.2700 6.0000
34.2800 7.0000
34.2900 7.0000
34.3000 5.0000
34.3100 10.0000
34.3200 3.0000
34.3300 6.0000
34.3400 5.0000
34.3500 7.0000
34.3600 11.0000
34.3700 14.0000
34.3800 8.0000
34.3900 9.0000
34.4000 8.0000
34.4100 5.0000
34.4200 15.0000
34.4300 10.0000
34.4400 4.0000
34.4500 8.0000
34.4600 7.0000
34.4700 12.0000
34.4800 13.0000
34.4900 13.0000
34.5000 12.0000
34.5100 6.0000
34.5200 7.0000
34.5300 9.0000
34.5400 13.0000
34.5500 11.0000
34.5600 16.0000
34.5700 14.0000
34.5800 6.0000
34.5900 12.0000
34.6000 6.0000
34.6100 12.0000
34.6200 6.0000
34.6300 6.0000
34.6400 7.0000
34.6500 8.0000
34.6600 10.0000
34.6700 10.0000
34.6800 5.0000
34.6900 6.0000
34.7000 7.0000
34.7100 5.0000
34.7200 6.0000
34.7300 3.0000
34.7400 10.0000
34.7500 10.0000
34.7600 12.0000
34.7700 12.0000
34.7800 10.0000
34.7900 7.0000
34.8000 6.0000
34.8100 7.0000
34.8200 8.0000
34.8300 12.0000
34.8400 7.0000
34.8500 6.0000
34.8600 8.0000
34.8700 12.0000
34.8800 7.0000
34.8900 9.0000
34.9000 6.0000
34.9100 9.0000
34.9200 7.0000
34.9300 9.0000
34.9400 5.0000
34.9500 9.0000
34.9600 11.0000
34.9700 13.0000
34.9800 12.0000
34.9900 9.0000
35.0000 7.0000
35.0100 11.0000
35.0200 11.0000
35.0300 12.0000
35.0400 12.0000
35.0500 6.0000
35.0600 10.0000
35.0700 12.0000
35.0800 10.0000
35.0900 9.0000
35.1000 8.0000
35.1100 10.0000
35.1200 13.0000
35.1300 6.0000
35.1400 7.0000
35.1500 12.0000
35.1600 10.0000
35.1700 8.0000
35.1800 10.0000
35.1900 7.0000
35.2000 8.0000
35.2100 6.0000
35.2200 12.0000
35.2300 7.0000
35.2400 7.0000
35.2500 7.0000
35.2600 7.0000
35.2700 8.0000
35.2800 6.0000
35.2900 5.0000
35.3000 9.0000
35.3100 9.0000
35.3200 8.0000
35.3300 13.0000
35.3400 8.0000
35.3500 8.0000
35.3600 6.0000
35.3700 7.0000
35.3800 9.0000
35.3900 10.0000
35.4000 10.0000
35.4100 9.0000
35.4200 7.0000
35.4300 7.0000
35.4400 15.0000
35.4500 8.0000
35.4600 5.0000
35.4700 8.0000
35.4800 7.0000
35.4900 7.0000
35.5000 11.0000
35.5100 7.0000
35.5200 14.0000
35.5300 6.0000
35.5400 9.0000
35.5500 15.0000
35.5600 7.0000
35.5700 11.0000
35.5800 13.0000
35.5900 7.0000
35.6000 8.0000
35.6100 10.0000
35.6200 8.0000
35.6300 5.0000
35.6400 5.0000
35.6500 7.0000
35.6600 10.0000
35.6700 8.0000
35.6800 3.0000
35.6900 3.0000
35.7000 9.0000
35.7100 12.0000
35.7200 6.0000
35.7300 9.0000
35.7400 5.0000
35.7500 12.0000
35.7600 7.0000
35.7700 8.0000
35.7800 10.0000
35.7900 9.0000
35.8000 10.0000
35.8100 14.0000
35.8200 9.0000
35.8300 10.0000
35.8400 8.0000
35.8500 13.0000
35.8600 6.0000
35.8700 10.0000
35.8800 10.0000
35.8900 3.0000
35.9000 12.0000
35.9100 9.0000
35.9200 15.0000
35.9300 11.0000
35.9400 14.0000
35.9500 7.0000
35.9600 5.0000
35.9700 6.0000
35.9800 6.0000
35.9900 10.0000
36.0000 10.0000
36.0100 7.0000
36.0200 3.0000
36.0300 7.0000
36.0400 7.0000
36.0500 3.0000
36.0600 9.0000
36.0700 14.0000
36.0800 5.0000
36.0900 6.0000
36.1000 8.0000
36.1100 14.0000
36.1200 8.0000
36.1300 10.0000
36.1400 8.0000
36.1500 7.0000
36.1600 11.0000
36.1700 9.0000
36.1800 8.0000
36.1900 5.0000
36.2000 7.0000
36.2100 7.0000
36.2200 7.0000
36.2300 8.0000
36.2400 10.0000
36.2500 10.0000
36.2600 5.0000
36.2700 7.0000
36.2800 3.0000
36.2900 8.0000
36.3000 5.0000
36.3100 6.0000
36.3200 10.0000
36.3300 10.0000
36.3400 7.0000
36.3500 6.0000
36.3600 12.0000
36.3700 6.0000
36.3800 7.0000
36.3900 5.0000
36.4000 13.0000
36.4100 13.0000
36.4200 8.0000
36.4300 7.0000
36.4400 8.0000
36.4500 8.0000
36.4600 4.0000
36.4700 6.0000
36.4800 7.0000
36.4900 11.0000
36.5000 10.0000
36.5100 10.0000
36.5200 6.0000
36.5300 3.0000
36.5400 6.0000
36.5500 9.0000
36.5600 8.0000
36.5700 13.0000
36.5800 11.0000
36.5900 13.0000
36.6000 15.0000
36.6100 9.0000
36.6200 13.0000
36.6300 7.0000
36.6400 10.0000
36.6500 8.0000
36.6600 5.0000
36.6700 5.0000
36.6800 5.0000
36.6900 6.0000
36.7000 7.0000
36.7100 9.0000
36.7200 5.0000
36.7300 9.0000
36.7400 6.0000
36.7500 5.0000
36.7600 6.0000
36.7700 5.0000
36.7800 10.0000
36.7900 7.0000
36.8000 6.0000
36.8100 7.0000
36.8200 8.0000
36.8300 5.0000
36.8400 6.0000
36.8500 7.0000
36.8600 5.0000
36.8700 7.0000
36.8800 5.0000
36.8900 6.0000
36.9000 8.0000
36.9100 6.0000
36.9200 8.0000
36.9300 6.0000
36.9400 8.0000
36.9500 13.0000
36.9600 8.0000
36.9700 6.0000
36.9800 9.0000
36.9900 7.0000
37.0000 5.0000
37.0100 10.0000
37.0200 9.0000
37.0300 10.0000
37.0400 12.0000
37.0500 5.0000
37.0600 9.0000
37.0700 8.0000
37.0800 9.0000
37.0900 10.0000
37.1000 9.0000
37.1100 4.0000
37.1200 7.0000
37.1300 6.0000
37.1400 12.0000
37.1500 7.0000
37.1600 11.0000
37.1700 7.0000
37.1800 4.0000
37.1900 4.0000
37.2000 8.0000
37.2100 8.0000
37.2200 5.0000
37.2300 8.0000
37.2400 10.0000
37.2500 8.0000
37.2600 9.0000
37.2700 9.0000
37.2800 12.0000
37.2900 9.0000
37.3000 8.0000
37.3100 12.0000
37.3200 10.0000
37.3300 5.0000
37.3400 4.0000
37.3500 6.0000
37.3600 12.0000
37.3700 9.0000
37.3800 3.0000
37.3900 12.0000
37.4000 11.0000
37.4100 11.0000
37.4200 8.0000
37.4300 12.0000
37.4400 10.0000
37.4500 5.0000
37.4600 7.0000
37.4700 6.0000
37.4800 7.0000
37.4900 6.0000
37.5000 2.0000
37.5100 10.0000
37.5200 3.0000
37.5300 10.0000
37.5400 6.0000
37.5500 5.0000
37.5600 5.0000
37.5700 14.0000
37.5800 9.0000
37.5900 7.0000
37.6000 11.0000
37.6100 10.0000
37.6200 7.0000
37.6300 3.0000
37.6400 8.0000
37.6500 6.0000
37.6600 5.0000
37.6700 8.0000
37.6800 7.0000
37.6900 8.0000
37.7000 8.0000
37.7100 8.0000
37.7200 5.0000
37.7300 10.0000
37.7400 7.0000
37.7500 7.0000
37.7600 5.0000
37.7700 11.0000
37.7800 7.0000
37.7900 7.0000
37.8000 17.0000
37.8100 11.0000
37.8200 10.0000
37.8300 7.0000
37.8400 5.0000
37.8500 9.0000
37.8600 9.0000
37.8700 10.0000
37.8800 10.0000
37.8900 9.0000
37.9000 8.0000
37.9100 6.0000
37.9200 9.0000
37.9300 12.0000
37.9400 6.0000
37.9500 7.0000
37.9600 11.0000
37.9700 7.0000
37.9800 7.0000
37.9900 7.0000
38.0000 7.0000
38.0100 8.0000
38.0200 9.0000
38.0300 7.0000
38.0400 2.0000
38.0500 5.0000
38.0600 10.0000
38.0700 7.0000
38.0800 12.0000
38.0900 13.0000
38.1000 4.0000
38.1100 6.0000
38.1200 7.0000
38.1300 7.0000
38.1400 9.0000
38.1500 9.0000
38.1600 8.0000
38.1700 9.0000
38.1800 7.0000
38.1900 13.0000
38.2000 10.0000
38.2100 8.0000
38.2200 11.0000
38.2300 11.0000
38.2400 10.0000
38.2500 11.0000
38.2600 18.0000
38.2700 14.0000
38.2800 11.0000
38.2900 11.0000
38.3000 13.0000
38.3100 10.0000
38.3200 8.0000
38.3300 13.0000
38.3400 12.0000
38.3500 17.0000
38.3600 7.0000
38.3700 4.0000
38.3800 12.0000
38.3900 10.0000
38.4000 7.0000
38.4100 12.0000
38.4200 15.0000
38.4300 10.0000
38.4400 7.0000
38.4500 10.0000
38.4600 14.0000
38.4700 8.0000
38.4800 11.0000
38.4900 6.0000
38.5000 10.0000
38.5100 8.0000
38.5200 8.0000
38.5300 15.0000
38.5400 11.0000
38.5500 6.0000
38.5600 7.0000
38.5700 13.0000
38.5800 10.0000
38.5900 16.0000
38.6000 6.0000
38.6100 5.0000
38.6200 5.0000
38.6300 7.0000
38.6400 12.0000
38.6500 8.0000
38.6600 14.0000
38.6700 6.0000
38.6800 6.0000
38.6900 9.0000
38.7000 13.0000
38.7100 10.0000
38.7200 12.0000
38.7300 10.0000
38.7400 11.0000
38.7500 14.0000
38.7600 10.0000
38.7700 9.0000
38.7800 5.0000
38.7900 12.0000
38.8000 9.0000
38.8100 15.0000
38.8200 11.0000
38.8300 12.0000
38.8400 16.0000
38.8500 8.0000
38.8600 9.0000
38.8700 7.0000
38.8800 12.0000
38.8900 8.0000
38.9000 8.0000
38.9100 9.0000
38.9200 17.0000
38.9300 11.0000
38.9400 13.0000
38.9500 6.0000
38.9600 14.0000
38.9700 7.0000
38.9800 9.0000
38.9900 6.0000
39.0000 8.0000
39.0100 7.0000
39.0200 9.0000
39.0300 9.0000
39.0400 11.0000
39.0500 11.0000
39.0600 12.0000
39.0700 7.0000
39.0800 10.0000
39.0900 12.0000
39.1000 7.0000
39.1100 7.0000
39.1200 10.0000
39.1300 8.0000
39.1400 15.0000
39.1500 5.0000
39.1600 11.0000
39.1700 16.0000
39.1800 14.0000
39.1900 13.0000
39.2000 14.0000
39.2100 11.0000
39.2200 7.0000
39.2300 13.0000
39.2400 5.0000
39.2500 14.0000
39.2600 14.0000
39.2700 15.0000
39.2800 11.0000
39.2900 17.0000
39.3000 12.0000
39.3100 10.0000
39.3200 14.0000
39.3300 14.0000
39.3400 12.0000
39.3500 6.0000
39.3600 11.0000
39.3700 12.0000
39.3800 13.0000
39.3900 8.0000
39.4000 13.0000
39.4100 9.0000
39.4200 8.0000
39.4300 11.0000
39.4400 13.0000
39.4500 11.0000
39.4600 11.0000
39.4700 12.0000
39.4800 11.0000
39.4900 14.0000
39.5000 9.0000
39.5100 13.0000
39.5200 14.0000
39.5300 7.0000
39.5400 12.0000
39.5500 12.0000
39.5600 10.0000
39.5700 9.0000
39.5800 10.0000
39.5900 15.0000
39.6000 18.0000
39.6100 15.0000
39.6200 11.0000
39.6300 11.0000
39.6400 8.0000
39.6500 13.0000
39.6600 9.0000
39.6700 14.0000
39.6800 15.0000
39.6900 16.0000
39.7000 9.0000
39.7100 14.0000
39.7200 13.0000
39.7300 10.0000
39.7400 16.0000
39.7500 14.0000
39.7600 10.0000
39.7700 14.0000
39.7800 5.0000
39.7900 14.0000
39.8000 12.0000
39.8100 12.0000
39.8200 18.0000
39.8300 14.0000
39.8400 9.0000
39.8500 11.0000
39.8600 12.0000
39.8700 9.0000
39.8800 8.0000
39.8900 9.0000
39.9000 11.0000
39.9100 17.0000
39.9200 11.0000
39.9300 11.0000
39.9400 13.0000
39.9500 14.0000
39.9600 15.0000
39.9700 9.0000
39.9800 17.0000
39.9900 18.0000
40.0000 10.0000
40.0100 9.0000
40.0200 8.0000
40.0300 13.0000
40.0400 13.0000
40.0500 12.0000
40.0600 10.0000
40.0700 13.0000
40.0800 9.0000
40.0900 11.0000
40.1000 18.0000
40.1100 10.0000
40.1200 13.0000
40.1300 18.0000
40.1400 19.0000
40.1500 10.0000
40.1600 13.0000
40.1700 12.0000
40.1800 17.0000
40.1900 12.0000
40.2000 9.0000
40.2100 12.0000
40.2200 13.0000
40.2300 13.0000
40.2400 13.0000
40.2500 13.0000
40.2600 17.0000
40.2700 17.0000
40.2800 16.0000
40.2900 18.0000
40.3000 22.0000
40.3100 11.0000
40.3200 12.0000
40.3300 13.0000
40.3400 11.0000
40.3500 10.0000
40.3600 19.0000
40.3700 16.0000
40.3800 22.0000
40.3900 18.0000
40.4000 12.0000
40.4100 12.0000
40.4200 13.0000
40.4300 13.0000
40.4400 10.0000
40.4500 12.0000
40.4600 15.0000
40.4700 12.0000
40.4800 14.0000
40.4900 20.0000
40.5000 7.0000
40.5100 21.0000
40.5200 21.0000
40.5300 16.0000
40.5400 20.0000
40.5500 17.0000
40.5600 13.0000
40.5700 9.0000
40.5800 21.0000
40.5900 11.0000
40.6000 19.0000
40.6100 15.0000
40.6200 13.0000
40.6300 24.0000
40.6400 21.0000
40.6500 13.0000
40.6600 13.0000
40.6700 11.0000
40.6800 15.0000
40.6900 16.0000
40.7000 21.0000
40.7100 20.0000
40.7200 21.0000
40.7300 14.0000
40.7400 18.0000
40.7500 17.0000
40.7600 15.0000
40.7700 17.0000
40.7800 22.0000
40.7900 22.0000
40.8000 12.0000
40.8100 14.0000
40.8200 12.0000
40.8300 15.0000
40.8400 19.0000
40.8500 20.0000
40.8600 21.0000
40.8700 17.0000
40.8800 22.0000
40.8900 21.0000
40.9000 33.0000
40.9100 18.0000
40.9200 25.0000
40.9300 21.0000
40.9400 16.0000
40.9500 28.0000
40.9600 26.0000
40.9700 16.0000
40.9800 24.0000
40.9900 24.0000
41.0000 22.0000
41.0100 19.0000
41.0200 17.0000
41.0300 19.0000
41.0400 29.0000
41.0500 23.0000
41.0600 30.0000
41.0700 25.0000
41.0800 32.0000
41.0900 35.0000
41.1000 40.0000
41.1100 48.0000
41.1200 34.0000
41.1300 51.0000
41.1400 57.0000
41.1500 62.0000
41.1600 47.0000
41.1700 56.0000
41.1800 45.0000
41.1900 50.0000
41.2000 57.0000
41.2100 43.0000
41.2200 42.0000
41.2300 53.0000
41.2400 62.0000
41.2500 58.0000
41.2600 53.0000
41.2700 53.0000
41.2800 62.0000
41.2900 59.0000
41.3000 59.0000
41.3100 50.0000
41.3200 59.0000
41.3300 59.0000
41.3400 52.0000
41.3500 71.0000
41.3600 63.0000
41.3700 72.0000
41.3800 57.0000
41.3900 69.0000
41.4000 67.0000
41.4100 78.0000
41.4200 61.0000
41.4300 62.0000
41.4400 64.0000
41.4500 76.0000
41.4600 76.0000
41.4700 68.0000
41.4800 70.0000
41.4900 65.0000
41.5000 78.0000
41.5100 81.0000
41.5200 60.0000
41.5300 63.0000
41.5400 75.0000
41.5500 65.0000
41.5600 81.0000
41.5700 76.0000
41.5800 69.0000
41.5900 69.0000
41.6000 75.0000
41.6100 78.0000
41.6200 83.0000
41.6300 100.0000
41.6400 91.0000
41.6500 83.0000
41.6600 78.0000
41.6700 93.0000
41.6800 82.0000
41.6900 78.0000
41.7000 104.0000
41.7100 90.0000
41.7200 85.0000
41.7300 76.0000
41.7400 84.0000
41.7500 102.0000
41.7600 108.0000
41.7700 82.0000
41.7800 95.0000
41.7900 109.0000
41.8000 109.0000
41.8100 118.0000
41.8200 111.0000
41.8300 96.0000
41.8400 116.0000
41.8500 140.0000
41.8600 150.0000
41.8700 170.0000
41.8800 187.0000
41.8900 217.0000
41.9000 218.0000
41.9100 203.0000
41.9200 226.0000
41.9300 202.0000
41.9400 214.0000
41.9500 203.0000
41.9600 214.0000
41.9700 214.0000
41.9800 216.0000
41.9900 178.0000
42.0000 200.0000
42.0100 189.0000
42.0200 179.0000
42.0300 188.0000
42.0400 209.0000
42.0500 181.0000
42.0600 211.0000
42.0700 184.0000
42.0800 181.0000
42.0900 187.0000
42.1000 226.0000
42.1100 235.0000
42.1200 232.0000
42.1300 225.0000
42.1400 222.0000
42.1500 212.0000
42.1600 189.0000
42.1700 202.0000
42.1800 224.0000
42.1900 215.0000
42.2000 227.0000
42.2100 219.0000
42.2200 251.0000
42.2300 238.0000
42.2400 213.0000
42.2500 215.0000
42.2600 234.0000
42.2700 258.0000
42.2800 239.0000
42.2900 236.0000
42.3000 224.0000
42.3100 231.0000
42.3200 240.0000
42.3300 253.0000
42.3400 259.0000
42.3500 246.0000
42.3600 249.0000
42.3700 271.0000
42.3800 257.0000
42.3900 241.0000
42.4000 237.0000
42.4100 232.0000
42.4200 296.0000
42.4300 264.0000
42.4400 277.0000
42.4500 303.0000
42.4600 277.0000
42.4700 299.0000
42.4800 293.0000
42.4900 301.0000
42.5000 302.0000
42.5100 311.0000
42.5200 303.0000
42.5300 268.0000
42.5400 324.0000
42.5500 335.0000
42.5600 330.0000
42.5700 329.0000
42.5800 335.0000
42.5900 327.0000
42.6000 385.0000
42.6100 353.0000
42.6200 397.0000
42.6300 391.0000
42.6400 422.0000
42.6500 446.0000
42.6600 459.0000
42.6700 498.0000
42.6800 467.0000
42.6900 475.0000
42.7000 538.0000
42.7100 577.0000
42.7200 632.0000
42.7300 681.0000
42.7400 705.0000
42.7500 793.0000
42.7600 847.0000
42.7700 896.0000
42.7800 1042.0000
42.7900 1251.0000
42.8000 1510.0000
42.8100 1722.0000
42.8200 2135.0000
42.8300 2664.0000
42.8400 3456.0000
42.8500 4729.0000
42.8600 6979.0000
42.8700 11363.0000
42.8800 24274.0000
42.8900 80315.0000
42.9000 344448.0000
42.9100 1026615.0000
42.9200 1449316.0000
42.9300 1348533.0000
42.9400 768229.0000
42.9500 215055.0000
42.9600 49972.0000
42.9700 17741.0000
42.9800 9409.0000
42.9900 6163.0000
43.0000 4516.0000
43.0100 3482.0000
43.0200 2516.0000
43.0300 2055.0000
43.0400 1573.0000
43.0500 1323.0000
43.0600 1100.0000
43.0700 1065.0000
43.0800 900.0000
43.0900 765.0000
43.1000 718.0000
43.1100 665.0000
43.1200 630.0000
43.1300 607.0000
43.1400 558.0000
43.1500 494.0000
43.1600 448.0000
43.1700 465.0000
43.1800 451.0000
43.1900 429.0000
43.2000 449.0000
43.2100 392.0000
43.2200 388.0000
43.2300 395.0000
43.2400 347.0000
43.2500 383.0000
43.2600 334.0000
43.2700 335.0000
43.2800 323.0000
43.2900 335.0000
43.3000 332.0000
43.3100 320.0000
43.3200 289.0000
43.3300 301.0000
43.3400 322.0000
43.3500 305.0000
43.3600 294.0000
43.3700 271.0000
43.3800 270.0000
43.3900 249.0000
43.4000 253.0000
43.4100 250.0000
43.4200 239.0000
43.4300 222.0000
43.4400 226.0000
43.4500 228.0000
43.4600 243.0000
43.4700 251.0000
43.4800 259.0000
43.4900 257.0000
43.5000 225.0000
43.5100 224.0000
43.5200 209.0000
43.5300 231.0000
43.5400 232.0000
43.5500 213.0000
43.5600 212.0000
43.5700 236.0000
43.5800 226.0000
43.5900 221.0000
43.6000 240.0000
43.6100 242.0000
43.6200 219.0000
43.6300 216.0000
43.6400 237.0000
43.6500 203.0000
43.6600 209.0000
43.6700 198.0000
43.6800 176.0000
43.6900 224.0000
43.7000 219.0000
43.7100 220.0000
43.7200 210.0000
43.7300 218.0000
43.7400 214.0000
43.7500 219.0000
43.7600 191.0000
43.7700 180.0000
43.7800 176.0000
43.7900 158.0000
43.8000 175.0000
43.8100 172.0000
43.8200 178.0000
43.8300 174.0000
43.8400 189.0000
43.8500 186.0000
43.8600 188.0000
43.8700 199.0000
43.8800 224.0000
43.8900 233.0000
43.9000 214.0000
43.9100 192.0000
43.9200 214.0000
43.9300 219.0000
43.9400 215.0000
43.9500 206.0000
43.9600 194.0000
43.9700 186.0000
43.9800 177.0000
43.9900 164.0000
44.0000 136.0000
44.0100 126.0000
44.0200 117.0000
44.0300 108.0000
44.0400 89.0000
44.0500 88.0000
44.0600 102.0000
44.0700 95.0000
44.0800 95.0000
44.0900 92.0000
44.1000 92.0000
44.1100 82.0000
44.1200 98.0000
44.1300 86.0000
44.1400 85.0000
44.1500 85.0000
44.1600 76.0000
44.1700 77.0000
44.1800 91.0000
44.1900 79.0000
44.2000 81.0000
44.2100 87.0000
44.2200 82.0000
44.2300 72.0000
44.2400 78.0000
44.2500 60.0000
44.2600 66.0000
44.2700 71.0000
44.2800 56.0000
44.2900 64.0000
44.3000 74.0000
44.3100 77.0000
44.3200 76.0000
44.3300 73.0000
44.3400 70.0000
44.3500 64.0000
44.3600 71.0000
44.3700 65.0000
44.3800 68.0000
44.3900 71.0000
44.4000 70.0000
44.4100 78.0000
44.4200 60.0000
44.4300 71.0000
44.4400 66.0000
44.4500 58.0000
44.4600 72.0000
44.4700 68.0000
44.4800 58.0000
44.4900 57.0000
44.5000 36.0000
44.5100 58.0000
44.5200 57.0000
44.5300 52.0000
44.5400 59.0000
44.5500 64.0000
44.5600 46.0000
44.5700 61.0000
44.5800 53.0000
44.5900 56.0000
44.6000 44.0000
44.6100 42.0000
44.6200 51.0000
44.6300 48.0000
44.6400 52.0000
44.6500 59.0000
44.6600 56.0000
44.6700 60.0000
44.6800 49.0000
44.6900 36.0000
44.7000 51.0000
44.7100 54.0000
44.7200 54.0000
44.7300 40.0000
44.7400 39.0000
44.7500 34.0000
44.7600 34.0000
44.7700 30.0000
44.7800 32.0000
44.7900 21.0000
44.8000 19.0000
44.8100 21.0000
44.8200 21.0000
44.8300 17.0000
44.8400 22.0000
44.8500 17.0000
44.8600 18.0000
44.8700 24.0000
44.8800 22.0000
44.8900 14.0000
44.9000 23.0000
44.9100 26.0000
44.9200 21.0000
44.9300 17.0000
44.9400 20.0000
44.9500 14.0000
44.9600 20.0000
44.9700 15.0000
44.9800 8.0000
44.9900 17.0000
45.0000 17.0000
45.0100 18.0000
45.0200 14.0000
45.0300 15.0000
45.0400 18.0000
45.0500 15.0000
45.0600 16.0000
45.0700 18.0000
45.0800 12.0000
45.0900 20.0000
45.1000 18.0000
45.1100 17.0000
45.1200 17.0000
45.1300 14.0000
45.1400 12.0000
45.1500 18.0000
45.1600 16.0000
45.1700 23.0000
45.1800 10.0000
45.1900 26.0000
45.2000 12.0000
45.2100 14.0000
45.2200 14.0000
45.2300 12.0000
45.2400 18.0000
45.2500 11.0000
45.2600 16.0000
45.2700 19.0000
45.2800 10.0000
45.2900 15.0000
45.3000 9.0000
45.3100 13.0000
45.3200 11.0000
45.3300 10.0000
45.3400 16.0000
45.3500 13.0000
45.3600 17.0000
45.3700 19.0000
45.3800 22.0000
45.3900 13.0000
45.4000 16.0000
45.4100 12.0000
45.4200 10.0000
45.4300 12.0000
45.4400 19.0000
45.4500 12.0000
45.4600 8.0000
45.4700 17.0000
45.4800 13.0000
45.4900 12.0000
45.5000 7.0000
45.5100 10.0000
45.5200 12.0000
45.5300 15.0000
45.5400 20.0000
45.5500 21.0000
45.5600 16.0000
45.5700 16.0000
45.5800 13.0000
45.5900 11.0000
45.6000 8.0000
45.6100 16.0000
45.6200 20.0000
45.6300 9.0000
45.6400 13.0000
45.6500 8.0000
45.6600 13.0000
45.6700 15.0000
45.6800 12.0000
45.6900 13.0000
45.7000 11.0000
45.7100 12.0000
45.7200 6.0000
45.7300 12.0000
45.7400 16.0000
45.7500 9.0000
45.7600 11.0000
45.7700 6.0000
45.7800 10.0000
45.7900 10.0000
45.8000 10.0000
45.8100 10.0000
45.8200 16.0000
45.8300 14.0000
45.8400 7.0000
45.8500 10.0000
45.8600 11.0000
45.8700 12.0000
45.8800 11.0000
45.8900 11.0000
45.9000 7.0000
45.9100 8.0000
45.9200 8.0000
45.9300 12.0000
45.9400 8.0000
45.9500 9.0000
45.9600 11.0000
45.9700 10.0000
45.9800 10.0000
45.9900 9.0000
46.0000 7.0000
46.0100 16.0000
46.0200 9.0000
46.0300 10.0000
46.0400 11.0000
46.0500 14.0000
46.0600 13.0000
46.0700 7.0000
46.0800 7.0000
46.0900 11.0000
46.1000 11.0000
46.1100 12.0000
46.1200 10.0000
46.1300 8.0000
46.1400 7.0000
46.1500 10.0000
46.1600 9.0000
46.1700 11.0000
46.1800 9.0000
46.1900 7.0000
46.2000 10.0000
46.2100 12.0000
46.2200 7.0000
46.2300 12.0000
46.2400 12.0000
46.2500 16.0000
46.2600 6.0000
46.2700 6.0000
46.2800 9.0000
46.2900 12.0000
46.3000 12.0000
46.3100 12.0000
46.3200 7.0000
46.3300 12.0000
46.3400 9.0000
46.3500 6.0000
46.3600 6.0000
46.3700 6.0000
46.3800 5.0000
46.3900 9.0000
46.4000 6.0000
46.4100 12.0000
46.4200 5.0000
46.4300 11.0000
46.4400 5.0000
46.4500 12.0000
46.4600 11.0000
46.4700 11.0000
46.4800 8.0000
46.4900 10.0000
46.5000 10.0000
46.5100 16.0000
46.5200 12.0000
46.5300 9.0000
46.5400 8.0000
46.5500 8.0000
46.5600 9.0000
46.5700 12.0000
46.5800 10.0000
46.5900 9.0000
46.6000 12.0000
46.6100 14.0000
46.6200 7.0000
46.6300 11.0000
46.6400 8.0000
46.6500 8.0000
46.6600 5.0000
46.6700 4.0000
46.6800 8.0000
46.6900 10.0000
46.7000 8.0000
46.7100 11.0000
46.7200 7.0000
46.7300 4.0000
46.7400 0.0000
46.7500 7.0000
46.7600 11.0000
46.7700 6.0000
46.7800 8.0000
46.7900 11.0000
46.8000 11.0000
46.8100 10.0000
46.8200 2.0000
46.8300 7.0000
46.8400 11.0000
46.8500 6.0000
46.8600 11.0000
46.8700 8.0000
46.8800 10.0000
46.8900 7.0000
46.9000 10.0000
46.9100 7.0000
46.9200 7.0000
46.9300 12.0000
46.9400 7.0000
46.9500 9.0000
46.9600 10.0000
46.9700 8.0000
46.9800 7.0000
46.9900 13.0000
47.0000 6.0000
47.0100 6.0000
47.0200 11.0000
47.0300 9.0000
47.0400 13.0000
47.0500 5.0000
47.0600 8.0000
47.0700 5.0000
47.0800 10.0000
47.0900 9.0000
47.1000 10.0000
47.1100 5.0000
47.1200 10.0000
47.1300 12.0000
47.1400 7.0000
47.1500 4.0000
47.1600 5.0000
47.1700 7.0000
47.1800 8.0000
47.1900 6.0000
47.2000 8.0000
47.2100 8.0000
47.2200 5.0000
47.2300 6.0000
47.2400 9.0000
47.2500 8.0000
47.2600 10.0000
47.2700 11.0000
47.2800 12.0000
47.2900 11.0000
47.3000 9.0000
47.3100 8.0000
47.3200 3.0000
47.3300 4.0000
47.3400 8.0000
47.3500 7.0000
47.3600 3.0000
47.3700 9.0000
47.3800 5.0000
47.3900 3.0000
47.4000 8.0000
47.4100 6.0000
47.4200 7.0000
47.4300 10.0000
47.4400 7.0000
47.4500 8.0000
47.4600 8.0000
47.4700 10.0000
47.4800 2.0000
47.4900 2.0000
47.5000 6.0000
47.5100 8.0000
47.5200 6.0000
47.5300 4.0000
47.5400 8.0000
47.5500 5.0000
47.5600 2.0000
47.5700 4.0000
47.5800 6.0000
47.5900 6.0000
47.6000 5.0000
47.6100 4.0000
47.6200 6.0000
47.6300 6.0000
47.6400 7.0000
47.6500 6.0000
47.6600 4.0000
47.6700 4.0000
47.6800 2.0000
47.6900 7.0000
47.7000 5.0000
47.7100 8.0000
47.7200 9.0000
47.7300 11.0000
47.7400 4.0000
47.7500 11.0000
47.7600 6.0000
47.7700 7.0000
47.7800 8.0000
47.7900 5.0000
47.8000 6.0000
47.8100 4.0000
47.8200 3.0000
47.8300 5.0000
47.8400 10.0000
47.8500 4.0000
47.8600 6.0000
47.8700 3.0000
47.8800 5.0000
47.8900 9.0000
47.9000 9.0000
47.9100 8.0000
47.9200 4.0000
47.9300 2.0000
47.9400 2.0000
47.9500 2.0000
47.9600 1.0000
47.9700 6.0000
47.9800 6.0000
47.9900 5.0000
48.0000 5.0000
48.0100 6.0000
48.0200 7.0000
48.0300 6.0000
48.0400 4.0000
48.0500 9.0000
48.0600 10.0000
48.0700 8.0000
48.0800 6.0000
48.0900 8.0000
48.1000 8.0000
48.1100 8.0000
48.1200 3.0000
48.1300 5.0000
48.1400 10.0000
48.1500 5.0000
48.1600 8.0000
48.1700 10.0000
48.1800 3.0000
48.1900 2.0000
48.2000 3.0000
48.2100 11.0000
48.2200 5.0000
48.2300 5.0000
48.2400 7.0000
48.2500 6.0000
48.2600 6.0000
48.2700 3.0000
48.2800 6.0000
48.2900 8.0000
48.3000 3.0000
48.3100 2.0000
48.3200 6.0000
48.3300 8.0000
48.3400 5.0000
48.3500 8.0000
48.3600 4.0000
48.3700 6.0000
48.3800 7.0000
48.3900 9.0000
48.4000 6.0000
48.4100 4.0000
48.4200 7.0000
48.4300 5.0000
48.4400 6.0000
48.4500 6.0000
48.4600 9.0000
48.4700 5.0000
48.4800 6.0000
48.4900 8.0000
48.5000 6.0000
48.5100 3.0000
48.5200 7.0000
48.5300 8.0000
48.5400 7.0000
48.5500 8.0000
48.5600 9.0000
48.5700 6.0000
48.5800 4.0000
48.5900 7.0000
48.6000 5.0000
48.6100 8.0000
48.6200 7.0000
48.6300 7.0000
48.6400 3.0000
48.6500 2.0000
48.6600 3.0000
48.6700 8.0000
48.6800 6.0000
48.6900 6.0000
48.7000 3.0000
48.7100 5.0000
48.7200 8.0000
48.7300 7.0000
48.7400 4.0000
48.7500 7.0000
48.7600 12.0000
48.7700 9.0000
48.7800 5.0000
48.7900 8.0000
48.8000 4.0000
48.8100 4.0000
48.8200 6.0000
48.8300 3.0000
48.8400 8.0000
48.8500 4.0000
48.8600 5.0000
48.8700 6.0000
48.8800 5.0000
48.8900 2.0000
48.9000 7.0000
48.9100 7.0000
48.9200 5.0000
48.9300 8.0000
48.9400 7.0000
48.9500 12.0000
48.9600 5.0000
48.9700 6.0000
48.9800 9.0000
48.9900 3.0000
49.0000 3.0000
49.0100 7.0000
49.0200 5.0000
49.0300 6.0000
49.0400 8.0000
49.0500 6.0000
49.0600 3.0000
49.0700 7.0000
49.0800 3.0000
49.0900 5.0000
49.1000 2.0000
49.1100 5.0000
49.1200 4.0000
49.1300 4.0000
49.1400 4.0000
49.1500 2.0000
49.1600 8.0000
49.1700 6.0000
49.1800 3.0000
49.1900 6.0000
49.2000 2.0000
49.2100 3.0000
49.2200 6.0000
49.2300 5.0000
49.2400 6.0000
49.2500 6.0000
49.2600 10.0000
49.2700 0.0000
49.2800 3.0000
49.2900 7.0000
49.3000 6.0000
49.3100 9.0000
49.3200 1.0000
49.3300 6.0000
49.3400 10.0000
49.3500 0.0000
49.3600 6.0000
49.3700 6.0000
49.3800 6.0000
49.3900 8.0000
49.4000 7.0000
49.4100 9.0000
49.4200 4.0000
49.4300 5.0000
49.4400 5.0000
49.4500 11.0000
49.4600 4.0000
49.4700 6.0000
49.4800 2.0000
49.4900 2.0000
49.5000 4.0000
49.5100 4.0000
49.5200 6.0000
49.5300 3.0000
49.5400 5.0000
49.5500 0.0000
49.5600 3.0000
49.5700 8.0000
49.5800 4.0000
49.5900 6.0000
49.6000 8.0000
49.6100 2.0000
49.6200 6.0000
49.6300 9.0000
49.6400 6.0000
49.6500 4.0000
49.6600 4.0000
49.6700 8.0000
49.6800 4.0000
49.6900 6.0000
49.7000 3.0000
49.7100 4.0000
49.7200 5.0000
49.7300 8.0000
49.7400 5.0000
49.7500 5.0000
49.7600 5.0000
49.7700 6.0000
49.7800 4.0000
49.7900 6.0000
49.8000 6.0000
49.8100 4.0000
49.8200 5.0000
49.8300 9.0000
49.8400 4.0000
49.8500 8.0000
49.8600 7.0000
49.8700 2.0000
49.8800 3.0000
49.8900 5.0000
49.9000 1.0000
49.9100 2.0000
49.9200 6.0000
49.9300 7.0000
49.9400 6.0000
49.9500 5.0000
49.9600 4.0000
49.9700 4.0000
49.9800 5.0000
49.9900 5.0000
50.0000 3.0000
50.0100 2.0000
50.0200 5.0000
50.0300 5.0000
50.0400 2.0000
50.0500 6.0000
50.0600 3.0000
50.0700 3.0000
50.0800 1.0000
50.0900 6.0000
50.1000 4.0000
50.1100 3.0000
50.1200 5.0000
50.1300 6.0000
50.1400 3.0000
50.1500 1.0000
50.1600 3.0000
50.1700 6.0000
50.1800 5.0000
50.1900 3.0000
50.2000 3.0000
50.2100 2.0000
50.2200 3.0000
50.2300 7.0000
50.2400 4.0000
50.2500 6.0000
50.2600 6.0000
50.2700 3.0000
50.2800 1.0000
50.2900 3.0000
50.3000 2.0000
50.3100 2.0000
50.3200 4.0000
50.3300 3.0000
50.3400 3.0000
50.3500 8.0000
50.3600 8.0000
50.3700 4.0000
50.3800 5.0000
50.3900 2.0000
50.4000 4.0000
50.4100 4.0000
50.4200 5.0000
50.4300 5.0000
50.4400 7.0000
50.4500 6.0000
50.4600 8.0000
50.4700 8.0000
50.4800 4.0000
50.4900 5.0000
50.5000 6.0000
50.5100 4.0000
50.5200 3.0000
50.5300 5.0000
50.5400 7.0000
50.5500 2.0000
50.5600 4.0000
50.5700 5.0000
50.5800 6.0000
50.5900 5.0000
50.6000 4.0000
50.6100 4.0000
50.6200 7.0000
50.6300 8.0000
50.6400 6.0000
50.6500 7.0000
50.6600 6.0000
50.6700 5.0000
50.6800 5.0000
50.6900 4.0000
50.7000 4.0000
50.7100 4.0000
50.7200 5.0000
50.7300 6.0000
50.7400 3.0000
50.7500 1.0000
50.7600 6.0000
50.7700 6.0000
50.7800 2.0000
50.7900 4.0000
50.8000 2.0000
50.8100 2.0000
50.8200 9.0000
50.8300 8.0000
50.8400 5.0000
50.8500 5.0000
50.8600 6.0000
50.8700 3.0000
50.8800 4.0000
50.8900 8.0000
50.9000 4.0000
50.9100 8.0000
50.9200 3.0000
50.9300 6.0000
50.9400 3.0000
50.9500 2.0000
50.9600 7.0000
50.9700 5.0000
50.9800 3.0000
50.9900 2.0000
51.0000 4.0000
51.0100 8.0000
51.0200 4.0000
51.0300 7.0000
51.0400 5.0000
51.0500 6.0000
51.0600 6.0000
51.0700 3.0000
51.0800 4.0000
51.0900 4.0000
51.1000 7.0000
51.1100 7.0000
51.1200 4.0000
51.1300 5.0000
51.1400 2.0000
51.1500 1.0000
51.1600 8.0000
51.1700 8.0000
51.1800 3.0000
51.1900 6.0000
51.2000 4.0000
51.2100 3.0000
51.2200 4.0000
51.2300 7.0000
51.2400 3.0000
51.2500 8.0000
51.2600 6.0000
51.2700 6.0000
51.2800 4.0000
51.2900 8.0000
51.3000 6.0000
51.3100 4.0000
51.3200 5.0000
51.3300 5.0000
51.3400 6.0000
51.3500 6.0000
51.3600 9.0000
51.3700 3.0000
51.3800 6.0000
51.3900 7.0000
51.4000 6.0000
51.4100 2.0000
51.4200 4.0000
51.4300 2.0000
51.4400 3.0000
51.4500 4.0000
51.4600 3.0000
51.4700 5.0000
51.4800 5.0000
51.4900 4.0000
51.5000 6.0000
51.5100 5.0000
51.5200 5.0000
51.5300 4.0000
51.5400 5.0000
51.5500 4.0000
51.5600 2.0000
51.5700 5.0000
51.5800 1.0000
51.5900 1.0000
51.6000 4.0000
51.6100 5.0000
51.6200 3.0000
51.6300 3.0000
51.6400 9.0000
51.6500 2.0000
51.6600 3.0000
51.6700 1.0000
51.6800 7.0000
51.6900 4.0000
51.7000 3.0000
51.7100 2.0000
51.7200 2.0000
51.7300 2.0000
51.7400 4.0000
51.7500 2.0000
51.7600 5.0000
51.7700 4.0000
51.7800 6.0000
51.7900 5.0000
51.8000 6.0000
51.8100 5.0000
51.8200 2.0000
51.8300 4.0000
51.8400 5.0000
51.8500 5.0000
51.8600 8.0000
51.8700 5.0000
51.8800 2.0000
51.8900 6.0000
51.9000 2.0000
51.9100 4.0000
51.9200 4.0000
51.9300 3.0000
51.9400 6.0000
51.9500 5.0000
51.9600 4.0000
51.9700 3.0000
51.9800 3.0000
51.9900 2.0000
52.0000 1.0000
52.0100 7.0000
52.0200 4.0000
52.0300 5.0000
52.0400 8.0000
52.0500 3.0000
52.0600 2.0000
52.0700 3.0000
52.0800 2.0000
52.0900 1.0000
52.1000 0.0000
52.1100 2.0000
52.1200 3.0000
52.1300 2.0000
52.1400 2.0000
52.1500 6.0000
52.1600 4.0000
52.1700 2.0000
52.1800 3.0000
52.1900 2.0000
52.2000 6.0000
52.2100 7.0000
52.2200 5.0000
52.2300 7.0000
52.2400 4.0000
52.2500 4.0000
52.2600 6.0000
52.2700 4.0000
52.2800 7.0000
52.2900 4.0000
52.3000 2.0000
52.3100 1.0000
52.3200 3.0000
52.3300 3.0000
52.3400 3.0000
52.3500 1.0000
52.3600 4.0000
52.3700 2.0000
52.3800 2.0000
52.3900 6.0000
52.4000 7.0000
52.4100 2.0000
52.4200 7.0000
52.4300 7.0000
52.4400 2.0000
52.4500 1.0000
52.4600 3.0000
52.4700 3.0000
52.4800 0.0000
52.4900 4.0000
52.5000 5.0000
52.5100 5.0000
52.5200 2.0000
52.5300 5.0000
52.5400 5.0000
52.5500 0.0000
52.5600 4.0000
52.5700 2.0000
52.5800 4.0000
52.5900 5.0000
52.6000 6.0000
52.6100 2.0000
52.6200 5.0000
52.6300 4.0000
52.6400 6.0000
52.6500 1.0000
52.6600 7.0000
52.6700 7.0000
52.6800 1.0000
52.6900 1.0000
52.7000 8.0000
52.7100 3.0000
52.7200 3.0000
52.7300 2.0000
52.7400 2.0000
52.7500 5.0000
52.7600 0.0000
52.7700 3.0000
52.7800 3.0000
52.7900 2.0000
52.8000 7.0000
52.8100 6.0000
52.8200 3.0000
52.8300 2.0000
52.8400 4.0000
52.8500 9.0000
52.8600 5.0000
52.8700 1.0000
52.8800 6.0000
52.8900 7.0000
52.9000 6.0000
52.9100 2.0000
52.9200 1.0000
52.9300 1.0000
52.9400 3.0000
52.9500 5.0000
52.9600 2.0000
52.9700 6.0000
52.9800 4.0000
52.9900 4.0000
53.0000 3.0000
53.0100 1.0000
53.0200 5.0000
53.0300 3.0000
53.0400 4.0000
53.0500 4.0000
53.0600 3.0000
53.0700 1.0000
53.0800 5.0000
53.0900 6.0000
53.1000 4.0000
53.1100 4.0000
53.1200 8.0000
53.1300 4.0000
53.1400 4.0000
53.1500 4.0000
53.1600 3.0000
53.1700 5.0000
53.1800 7.0000
53.1900 8.0000
53.2000 4.0000
53.2100 8.0000
53.2200 4.0000
53.2300 8.0000
53.2400 5.0000
53.2500 5.0000
53.2600 7.0000
53.2700 4.0000
53.2800 1.0000
53.2900 10.0000
53.3000 7.0000
53.3100 5.0000
53.3200 5.0000
53.3300 4.0000
53.3400 4.0000
53.3500 6.0000
53.3600 5.0000
53.3700 5.0000
53.3800 3.0000
53.3900 4.0000
53.4000 9.0000
53.4100 7.0000
53.4200 7.0000
53.4300 4.0000
53.4400 4.0000
53.4500 8.0000
53.4600 3.0000
53.4700 2.0000
53.4800 3.0000
53.4900 7.0000
53.5000 5.0000
53.5100 3.0000
53.5200 5.0000
53.5300 4.0000
53.5400 3.0000
53.5500 3.0000
53.5600 5.0000
53.5700 7.0000
53.5800 8.0000
53.5900 3.0000
53.6000 6.0000
53.6100 2.0000
53.6200 4.0000
53.6300 3.0000
53.6400 3.0000
53.6500 6.0000
53.6600 1.0000
53.6700 3.0000
53.6800 3.0000
53.6900 3.0000
53.7000 1.0000
53.7100 5.0000
53.7200 3.0000
53.7300 4.0000
53.7400 6.0000
53.7500 3.0000
53.7600 5.0000
53.7700 5.0000
53.7800 3.0000
53.7900 3.0000
53.8000 5.0000
53.8100 6.0000
53.8200 6.0000
53.8300 3.0000
53.8400 4.0000
53.8500 2.0000
53.8600 1.0000
53.8700 4.0000
53.8800 3.0000
53.8900 1.0000
53.9000 2.0000
53.9100 3.0000
53.9200 4.0000
53.9300 3.0000
53.9400 5.0000
53.9500 5.0000
53.9600 7.0000
53.9700 3.0000
53.9800 2.0000
53.9900 5.0000
54.0000 7.0000
54.0100 5.0000
54.0200 2.0000
54.0300 2.0000
54.0400 5.0000
54.0500 4.0000
54.0600 7.0000
54.0700 5.0000
54.0800 8.0000
54.0900 2.0000
54.1000 5.0000
54.1100 4.0000
54.1200 4.0000
54.1300 3.0000
54.1400 1.0000
54.1500 2.0000
54.1600 4.0000
54.1700 6.0000
54.1800 3.0000
54.1900 0.0000
54.2000 2.0000
54.2100 7.0000
54.2200 3.0000
54.2300 6.0000
54.2400 5.0000
54.2500 1.0000
54.2600 3.0000
54.2700 2.0000
54.2800 3.0000
54.2900 2.0000
54.3000 1.0000
54.3100 2.0000
54.3200 1.0000
54.3300 3.0000
54.3400 3.0000
54.3500 10.0000
54.3600 4.0000
54.3700 1.0000
54.3800 3.0000
54.3900 3.0000
54.4000 3.0000
54.4100 3.0000
54.4200 6.0000
54.4300 7.0000
54.4400 3.0000
54.4500 1.0000
54.4600 2.0000
54.4700 1.0000
54.4800 2.0000
54.4900 4.0000
54.5000 8.0000
54.5100 2.0000
54.5200 1.0000
54.5300 4.0000
54.5400 4.0000
54.5500 7.0000
54.5600 5.0000
54.5700 5.0000
54.5800 6.0000
54.5900 5.0000
54.6000 7.0000
54.6100 2.0000
54.6200 2.0000
54.6300 7.0000
54.6400 5.0000
54.6500 4.0000
54.6600 0.0000
54.6700 6.0000
54.6800 10.0000
54.6900 3.0000
54.7000 3.0000
54.7100 1.0000
54.7200 3.0000
54.7300 6.0000
54.7400 0.0000
54.7500 2.0000
54.7600 4.0000
54.7700 5.0000
54.7800 5.0000
54.7900 5.0000
54.8000 3.0000
54.8100 4.0000
54.8200 8.0000
54.8300 5.0000
54.8400 8.0000
54.8500 4.0000
54.8600 0.0000
54.8700 2.0000
54.8800 5.0000
54.8900 5.0000
54.9000 2.0000
54.9100 5.0000
54.9200 6.0000
54.9300 5.0000
54.9400 5.0000
54.9500 7.0000
54.9600 7.0000
54.9700 6.0000
54.9800 5.0000
54.9900 4.0000
55.0000 3.0000
55.0100 4.0000
55.0200 3.0000
55.0300 2.0000
55.0400 4.0000
55.0500 7.0000
55.0600 4.0000
55.0700 1.0000
55.0800 6.0000
55.0900 2.0000
55.1000 8.0000
55.1100 3.0000
55.1200 4.0000
55.1300 4.0000
55.1400 1.0000
55.1500 1.0000
55.1600 1.0000
55.1700 2.0000
55.1800 7.0000
55.1900 5.0000
55.2000 2.0000
55.2100 3.0000
55.2200 2.0000
55.2300 3.0000
55.2400 3.0000
55.2500 5.0000
55.2600 2.0000
55.2700 7.0000
55.2800 4.0000
55.2900 2.0000
55.3000 7.0000
55.3100 3.0000
55.3200 5.0000
55.3300 1.0000
55.3400 3.0000
55.3500 4.0000
55.3600 3.0000
55.3700 4.0000
55.3800 3.0000
55.3900 2.0000
55.4000 2.0000
55.4100 2.0000
55.4200 3.0000
55.4300 6.0000
55.4400 4.0000
55.4500 3.0000
55.4600 5.0000
55.4700 8.0000
55.4800 2.0000
55.4900 3.0000
55.5000 2.0000
55.5100 1.0000
55.5200 5.0000
55.5300 4.0000
55.5400 6.0000
55.5500 4.0000
55.5600 2.0000
55.5700 2.0000
55.5800 3.0000
55.5900 3.0000
55.6000 2.0000
55.6100 3.0000
55.6200 2.0000
55.6300 1.0000
55.6400 4.0000
55.6500 4.0000
55.6600 5.0000
55.6700 2.0000
55.6800 4.0000
55.6900 4.0000
55.7000 4.0000
55.7100 2.0000
55.7200 4.0000
55.7300 2.0000
55.7400 1.0000
55.7500 4.0000
55.7600 6.0000
55.7700 5.0000
55.7800 3.0000
55.7900 2.0000
55.8000 2.0000
55.8100 5.0000
55.8200 2.0000
55.8300 3.0000
55.8400 2.0000
55.8500 3.0000
55.8600 1.0000
55.8700 3.0000
55.8800 2.0000
55.8900 3.0000
55.9000 2.0000
55.9100 4.0000
55.9200 1.0000
55.9300 4.0000
55.9400 4.0000
55.9500 3.0000
55.9600 5.0000
55.9700 2.0000
55.9800 2.0000
55.9900 2.0000
56.0000 0.0000
56.0100 0.0000
56.0200 3.0000
56.0300 5.0000
56.0400 2.0000
56.0500 4.0000
56.0600 4.0000
56.0700 5.0000
56.0800 5.0000
56.0900 3.0000
56.1000 3.0000
56.1100 6.0000
56.1200 6.0000
56.1300 1.0000
56.1400 3.0000
56.1500 2.0000
56.1600 4.0000
56.1700 3.0000
56.1800 0.0000
56.1900 5.0000
56.2000 4.0000
56.2100 1.0000
56.2200 3.0000
56.2300 0.0000
56.2400 1.0000
56.2500 0.0000
56.2600 2.0000
56.2700 4.0000
56.2800 3.0000
56.2900 6.0000
56.3000 3.0000
56.3100 2.0000
56.3200 5.0000
56.3300 6.0000
56.3400 4.0000
56.3500 6.0000
56.3600 4.0000
56.3700 2.0000
56.3800 9.0000
56.3900 4.0000
56.4000 4.0000
56.4100 4.0000
56.4200 7.0000
56.4300 3.0000
56.4400 8.0000
56.4500 6.0000
56.4600 5.0000
56.4700 3.0000
56.4800 1.0000
56.4900 6.0000
56.5000 1.0000
56.5100 6.0000
56.5200 6.0000
56.5300 6.0000
56.5400 9.0000
56.5500 3.0000
56.5600 7.0000
56.5700 4.0000
56.5800 6.0000
56.5900 5.0000
56.6000 1.0000
56.6100 3.0000
56.6200 5.0000
56.6300 3.0000
56.6400 2.0000
56.6500 2.0000
56.6600 4.0000
56.6700 3.0000
56.6800 3.0000
56.6900 3.0000
56.7000 4.0000
56.7100 3.0000
56.7200 8.0000
56.7300 4.0000
56.7400 6.0000
56.7500 6.0000
56.7600 5.0000
56.7700 5.0000
56.7800 4.0000
56.7900 5.0000
56.8000 1.0000
56.8100 4.0000
56.8200 2.0000
56.8300 1.0000
56.8400 9.0000
56.8500 9.0000
56.8600 6.0000
56.8700 2.0000
56.8800 1.0000
56.8900 2.0000
56.9000 2.0000
56.9100 5.0000
56.9200 5.0000
56.9300 2.0000
56.9400 7.0000
56.9500 5.0000
56.9600 4.0000
56.9700 2.0000
56.9800 2.0000
56.9900 2.0000
57.0000 3.0000
57.0100 4.0000
57.0200 2.0000
57.0300 2.0000
57.0400 2.0000
57.0500 5.0000
57.0600 2.0000
57.0700 4.0000
57.0800 4.0000
57.0900 4.0000
57.1000 3.0000
57.1100 4.0000
57.1200 1.0000
57.1300 3.0000
57.1400 1.0000
57.1500 2.0000
57.1600 3.0000
57.1700 3.0000
57.1800 5.0000
57.1900 2.0000
57.2000 4.0000
57.2100 2.0000
57.2200 4.0000
57.2300 6.0000
57.2400 2.0000
57.2500 4.0000
57.2600 3.0000
57.2700 4.0000
57.2800 2.0000
57.2900 3.0000
57.3000 1.0000
57.3100 7.0000
57.3200 4.0000
57.3300 4.0000
57.3400 3.0000
57.3500 7.0000
57.3600 5.0000
57.3700 3.0000
57.3800 4.0000
57.3900 2.0000
57.4000 3.0000
57.4100 6.0000
57.4200 2.0000
57.4300 1.0000
57.4400 1.0000
57.4500 4.0000
57.4600 1.0000
57.4700 1.0000
57.4800 4.0000
57.4900 6.0000
57.5000 1.0000
57.5100 7.0000
57.5200 2.0000
57.5300 8.0000
57.5400 3.0000
57.5500 1.0000
57.5600 2.0000
57.5700 2.0000
57.5800 3.0000
57.5900 1.0000
57.6000 3.0000
57.6100 3.0000
57.6200 2.0000
57.6300 5.0000
57.6400 4.0000
57.6500 3.0000
57.6600 3.0000
57.6700 3.0000
57.6800 3.0000
57.6900 4.0000
57.7000 3.0000
57.7100 4.0000
57.7200 2.0000
57.7300 4.0000
57.7400 3.0000
57.7500 2.0000
57.7600 3.0000
57.7700 2.0000
57.7800 6.0000
57.7900 3.0000
57.8000 1.0000
57.8100 5.0000
57.8200 4.0000
57.8300 0.0000
57.8400 3.0000
57.8500 5.0000
57.8600 3.0000
57.8700 2.0000
57.8800 2.0000
57.8900 3.0000
57.9000 5.0000
57.9100 5.0000
57.9200 0.0000
57.9300 3.0000
57.9400 3.0000
57.9500 5.0000
57.9600 2.0000
57.9700 2.0000
57.9800 6.0000
57.9900 2.0000
58.0000 0.0000
58.0100 0.0000
58.0200 2.0000
58.0300 4.0000
58.0400 1.0000
58.0500 1.0000
58.0600 1.0000
58.0700 0.0000
58.0800 1.0000
58.0900 2.0000
58.1000 3.0000
58.1100 5.0000
58.1200 3.0000
58.1300 3.0000
58.1400 4.0000
58.1500 3.0000
58.1600 3.0000
58.1700 3.0000
58.1800 1.0000
58.1900 5.0000
58.2000 5.0000
58.2100 4.0000
58.2200 2.0000
58.2300 1.0000
58.2400 3.0000
58.2500 2.0000
58.2600 5.0000
58.2700 2.0000
58.2800 4.0000
58.2900 5.0000
58.3000 3.0000
58.3100 3.0000
58.3200 1.0000
58.3300 0.0000
58.3400 2.0000
58.3500 4.0000
58.3600 2.0000
58.3700 4.0000
58.3800 1.0000
58.3900 4.0000
58.4000 1.0000
58.4100 4.0000
58.4200 5.0000
58.4300 4.0000
58.4400 4.0000
58.4500 2.0000
58.4600 1.0000
58.4700 1.0000
58.4800 9.0000
58.4900 4.0000
58.5000 4.0000
58.5100 2.0000
58.5200 1.0000
58.5300 5.0000
58.5400 2.0000
58.5500 4.0000
58.5600 1.0000
58.5700 2.0000
58.5800 3.0000
58.5900 3.0000
58.6000 2.0000
58.6100 2.0000
58.6200 2.0000
58.6300 2.0000
58.6400 5.0000
58.6500 2.0000
58.6600 1.0000
58.6700 3.0000
58.6800 3.0000
58.6900 3.0000
58.7000 1.0000
58.7100 4.0000
58.7200 3.0000
58.7300 3.0000
58.7400 2.0000
58.7500 1.0000
58.7600 0.0000
58.7700 2.0000
58.7800 2.0000
58.7900 2.0000
58.8000 1.0000
58.8100 1.0000
58.8200 3.0000
58.8300 5.0000
58.8400 4.0000
58.8500 2.0000
58.8600 2.0000
58.8700 4.0000
58.8800 2.0000
58.8900 0.0000
58.9000 4.0000
58.9100 0.0000
58.9200 8.0000
58.9300 1.0000
58.9400 2.0000
58.9500 2.0000
58.9600 3.0000
58.9700 3.0000
58.9800 2.0000
58.9900 3.0000
59.0000 3.0000
59.0100 4.0000
59.0200 2.0000
59.0300 4.0000
59.0400 2.0000
59.0500 0.0000
59.0600 1.0000
59.0700 1.0000
59.0800 2.0000
59.0900 3.0000
59.1000 2.0000
59.1100 3.0000
59.1200 1.0000
59.1300 2.0000
59.1400 7.0000
59.1500 2.0000
59.1600 4.0000
59.1700 1.0000
59.1800 4.0000
59.1900 4.0000
59.2000 1.0000
59.2100 4.0000
59.2200 6.0000
59.2300 4.0000
59.2400 1.0000
59.2500 2.0000
59.2600 0.0000
59.2700 2.0000
59.2800 4.0000
59.2900 5.0000
59.3000 6.0000
59.3100 5.0000
59.3200 4.0000
59.3300 2.0000
59.3400 1.0000
59.3500 2.0000
59.3600 7.0000
59.3700 6.0000
59.3800 7.0000
59.3900 3.0000
59.4000 0.0000
59.4100 5.0000
59.4200 4.0000
59.4300 5.0000
59.4400 1.0000
59.4500 2.0000
59.4600 2.0000
59.4700 2.0000
59.4800 2.0000
59.4900 4.0000
59.5000 6.0000
59.5100 4.0000
59.5200 4.0000
59.5300 1.0000
59.5400 4.0000
59.5500 6.0000
59.5600 6.0000
59.5700 3.0000
59.5800 6.0000
59.5900 2.0000
59.6000 2.0000
59.6100 5.0000
59.6200 3.0000
59.6300 2.0000
59.6400 1.0000
59.6500 2.0000
59.6600 3.0000
59.6700 3.0000
59.6800 5.0000
59.6900 1.0000
59.7000 3.0000
59.7100 5.0000
59.7200 5.0000
59.7300 4.0000
59.7400 5.0000
59.7500 6.0000
59.7600 4.0000
59.7700 3.0000
59.7800 3.0000
59.7900 1.0000
59.8000 2.0000
59.8100 7.0000
59.8200 8.0000
59.8300 3.0000
59.8400 4.0000
59.8500 2.0000
59.8600 5.0000
59.8700 3.0000
59.8800 1.0000
59.8900 1.0000
59.9000 5.0000
59.9100 6.0000
59.9200 2.0000
59.9300 2.0000
59.9400 1.0000
59.9500 3.0000
59.9600 0.0000
59.9700 2.0000
59.9800 2.0000
59.9900 0.0000
60.0000 4.0000
60.0100 1.0000
60.0200 4.0000
60.0300 1.0000
60.0400 4.0000
60.0500 5.0000
60.0600 1.0000
60.0700 1.0000
60.0800 1.0000
60.0900 3.0000
60.1000 3.0000
60.1100 3.0000
60.1200 3.0000
60.1300 1.0000
60.1400 2.0000
60.1500 3.0000
60.1600 1.0000
60.1700 0.0000
60.1800 3.0000
60.1900 2.0000
60.2000 3.0000
60.2100 1.0000
60.2200 4.0000
60.2300 2.0000
60.2400 1.0000
60.2500 1.0000
60.2600 1.0000
60.2700 2.0000
60.2800 3.0000
60.2900 2.0000
60.3000 1.0000
60.3100 4.0000
60.3200 4.0000
60.3300 5.0000
60.3400 1.0000
60.3500 5.0000
60.3600 3.0000
60.3700 3.0000
60.3800 3.0000
60.3900 5.0000
60.4000 2.0000
60.4100 4.0000
60.4200 2.0000
60.4300 3.0000
60.4400 5.0000
60.4500 4.0000
60.4600 5.0000
60.4700 1.0000
60.4800 2.0000
60.4900 5.0000
60.5000 3.0000
60.5100 4.0000
60.5200 0.0000
60.5300 2.0000
60.5400 2.0000
60.5500 1.0000
60.5600 4.0000
60.5700 3.0000
60.5800 1.0000
60.5900 2.0000
60.6000 1.0000
60.6100 1.0000
60.6200 3.0000
60.6300 5.0000
60.6400 3.0000
60.6500 6.0000
60.6600 1.0000
60.6700 1.0000
60.6800 6.0000
60.6900 6.0000
60.7000 3.0000
60.7100 2.0000
60.7200 3.0000
60.7300 1.0000
60.7400 4.0000
60.7500 2.0000
60.7600 2.0000
60.7700 3.0000
60.7800 3.0000
60.7900 2.0000
60.8000 1.0000
60.8100 3.0000
60.8200 2.0000
60.8300 2.0000
60.8400 6.0000
60.8500 1.0000
60.8600 0.0000
60.8700 2.0000
60.8800 4.0000
60.8900 2.0000
60.9000 1.0000
60.9100 3.0000
60.9200 3.0000
60.9300 4.0000
60.9400 2.0000
60.9500 6.0000
60.9600 4.0000
60.9700 4.0000
60.9800 5.0000
60.9900 1.0000
61.0000 3.0000
61.0100 5.0000
61.0200 5.0000
61.0300 4.0000
61.0400 5.0000
61.0500 4.0000
61.0600 5.0000
61.0700 3.0000
61.0800 3.0000
61.0900 2.0000
61.1000 2.0000
61.1100 1.0000
61.1200 4.0000
61.1300 2.0000
61.1400 2.0000
61.1500 4.0000
61.1600 2.0000
61.1700 9.0000
61.1800 7.0000
61.1900 1.0000
61.2000 1.0000
61.2100 8.0000
61.2200 4.0000
61.2300 6.0000
61.2400 2.0000
61.2500 5.0000
61.2600 3.0000
61.2700 3.0000
61.2800 4.0000
61.2900 3.0000
61.3000 1.0000
61.3100 2.0000
61.3200 3.0000
61.3300 2.0000
61.3400 5.0000
61.3500 6.0000
61.3600 6.0000
61.3700 4.0000
61.3800 5.0000
61.3900 2.0000
61.4000 2.0000
61.4100 4.0000
61.4200 6.0000
61.4300 5.0000
61.4400 4.0000
61.4500 0.0000
61.4600 3.0000
61.4700 5.0000
61.4800 4.0000
61.4900 1.0000
61.5000 3.0000
61.5100 4.0000
61.5200 5.0000
61.5300 4.0000
61.5400 4.0000
61.5500 8.0000
61.5600 3.0000
61.5700 1.0000
61.5800 2.0000
61.5900 3.0000
61.6000 1.0000
61.6100 2.0000
61.6200 2.0000
61.6300 5.0000
61.6400 4.0000
61.6500 3.0000
61.6600 0.0000
61.6700 4.0000
61.6800 4.0000
61.6900 3.0000
61.7000 5.0000
61.7100 3.0000
61.7200 2.0000
61.7300 5.0000
61.7400 4.0000
61.7500 2.0000
61.7600 1.0000
61.7700 3.0000
61.7800 2.0000
61.7900 0.0000
61.8000 4.0000
61.8100 1.0000
61.8200 2.0000
61.8300 2.0000
61.8400 1.0000
61.8500 1.0000
61.8600 2.0000
61.8700 2.0000
61.8800 2.0000
61.8900 4.0000
61.9000 0.0000
61.9100 0.0000
61.9200 2.0000
61.9300 6.0000
61.9400 2.0000
61.9500 2.0000
61.9600 1.0000
61.9700 1.0000
61.9800 5.0000
61.9900 1.0000
62.0000 3.0000
62.0100 0.0000
62.0200 2.0000
62.0300 1.0000
62.0400 3.0000
62.0500 5.0000
62.0600 4.0000
62.0700 1.0000
62.0800 2.0000
62.0900 4.0000
62.1000 1.0000
62.1100 4.0000
62.1200 5.0000
62.1300 4.0000
62.1400 2.0000
62.1500 4.0000
62.1600 2.0000
62.1700 3.0000
62.1800 4.0000
62.1900 7.0000
62.2000 3.0000
62.2100 1.0000
62.2200 4.0000
62.2300 3.0000
62.2400 3.0000
62.2500 6.0000
62.2600 0.0000
62.2700 1.0000
62.2800 1.0000
62.2900 1.0000
62.3000 1.0000
62.3100 1.0000
62.3200 5.0000
62.3300 5.0000
62.3400 6.0000
62.3500 2.0000
62.3600 2.0000
62.3700 2.0000
62.3800 3.0000
62.3900 1.0000
62.4000 6.0000
62.4100 2.0000
62.4200 2.0000
62.4300 4.0000
62.4400 2.0000
62.4500 3.0000
62.4600 1.0000
62.4700 1.0000
62.4800 1.0000
62.4900 0.0000
62.5000 2.0000
62.5100 4.0000
62.5200 4.0000
62.5300 3.0000
62.5400 0.0000
62.5500 0.0000
62.5600 0.0000
62.5700 2.0000
62.5800 2.0000
62.5900 2.0000
62.6000 6.0000
62.6100 2.0000
62.6200 1.0000
62.6300 1.0000
62.6400 1.0000
62.6500 0.0000
62.6600 1.0000
62.6700 2.0000
62.6800 1.0000
62.6900 3.0000
62.7000 5.0000
62.7100 3.0000
62.7200 4.0000
62.7300 0.0000
62.7400 3.0000
62.7500 6.0000
62.7600 6.0000
62.7700 0.0000
62.7800 5.0000
62.7900 2.0000
62.8000 3.0000
62.8100 3.0000
62.8200 5.0000
62.8300 3.0000
62.8400 2.0000
62.8500 2.0000
62.8600 2.0000
62.8700 2.0000
62.8800 2.0000
62.8900 3.0000
62.9000 0.0000
62.9100 2.0000
62.9200 4.0000
62.9300 1.0000
62.9400 2.0000
62.9500 4.0000
62.9600 2.0000
62.9700 4.0000
62.9800 5.0000
62.9900 3.0000
63.0000 0.0000
63.0100 4.0000
63.0200 3.0000
63.0300 5.0000
63.0400 5.0000
63.0500 2.0000
63.0600 2.0000
63.0700 5.0000
63.0800 2.0000
63.0900 3.0000
63.1000 4.0000
63.1100 3.0000
63.1200 3.0000
63.1300 3.0000
63.1400 1.0000
63.1500 2.0000
63.1600 2.0000
63.1700 3.0000
63.1800 1.0000
63.1900 5.0000
63.2000 3.0000
63.2100 2.0000
63.2200 5.0000
63.2300 2.0000
63.2400 1.0000
63.2500 1.0000
63.2600 4.0000
63.2700 6.0000
63.2800 5.0000
63.2900 1.0000
63.3000 4.0000
63.3100 6.0000
63.3200 4.0000
63.3300 2.0000
63.3400 3.0000
63.3500 4.0000
63.3600 5.0000
63.3700 4.0000
63.3800 4.0000
63.3900 4.0000
63.4000 4.0000
63.4100 7.0000
63.4200 5.0000
63.4300 5.0000
63.4400 4.0000
63.4500 5.0000
63.4600 4.0000
63.4700 5.0000
63.4800 4.0000
63.4900 2.0000
63.5000 1.0000
63.5100 2.0000
63.5200 4.0000
63.5300 3.0000
63.5400 1.0000
63.5500 3.0000
63.5600 2.0000
63.5700 3.0000
63.5800 4.0000
63.5900 3.0000
63.6000 3.0000
63.6100 4.0000
63.6200 3.0000
63.6300 3.0000
63.6400 2.0000
63.6500 6.0000
63.6600 3.0000
63.6700 2.0000
63.6800 4.0000
63.6900 1.0000
63.7000 4.0000
63.7100 2.0000
63.7200 5.0000
63.7300 2.0000
63.7400 1.0000
63.7500 2.0000
63.7600 1.0000
63.7700 4.0000
63.7800 3.0000
63.7900 1.0000
63.8000 1.0000
63.8100 1.0000
63.8200 1.0000
63.8300 2.0000
63.8400 1.0000
63.8500 2.0000
63.8600 1.0000
63.8700 4.0000
63.8800 4.0000
63.8900 5.0000
63.9000 1.0000
63.9100 2.0000
63.9200 9.0000
63.9300 3.0000
63.9400 6.0000
63.9500 5.0000
63.9600 5.0000
63.9700 1.0000
63.9800 0.0000
63.9900 6.0000
64.0000 3.0000
64.0100 3.0000
64.0200 4.0000
64.0300 0.0000
64.0400 3.0000
64.0500 2.0000
64.0600 5.0000
64.0700 3.0000
64.0800 3.0000
64.0900 3.0000
64.1000 0.0000
64.1100 2.0000
64.1200 3.0000
64.1300 2.0000
64.1400 1.0000
64.1500 2.0000
64.1600 2.0000
64.1700 5.0000
64.1800 3.0000
64.1900 4.0000
64.2000 2.0000
64.2100 1.0000
64.2200 3.0000
64.2300 3.0000
64.2400 4.0000
64.2500 4.0000
64.2600 2.0000
64.2700 4.0000
64.2800 2.0000
64.2900 1.0000
64.3000 4.0000
64.3100 2.0000
64.3200 5.0000
64.3300 2.0000
64.3400 2.0000
64.3500 4.0000
64.3600 1.0000
64.3700 2.0000
64.3800 2.0000
64.3900 0.0000
64.4000 4.0000
64.4100 2.0000
64.4200 6.0000
64.4300 0.0000
64.4400 1.0000
64.4500 2.0000
64.4600 6.0000
64.4700 3.0000
64.4800 5.0000
64.4900 3.0000
64.5000 2.0000
64.5100 0.0000
64.5200 5.0000
64.5300 2.0000
64.5400 3.0000
64.5500 3.0000
64.5600 5.0000
64.5700 1.0000
64.5800 0.0000
64.5900 0.0000
64.6000 4.0000
64.6100 2.0000
64.6200 4.0000
64.6300 2.0000
64.6400 3.0000
64.6500 4.0000
64.6600 4.0000
64.6700 1.0000
64.6800 4.0000
64.6900 0.0000
64.7000 0.0000
64.7100 3.0000
64.7200 3.0000
64.7300 2.0000
64.7400 2.0000
64.7500 4.0000
64.7600 4.0000
64.7700 0.0000
64.7800 1.0000
64.7900 1.0000
64.8000 1.0000
64.8100 1.0000
64.8200 2.0000
64.8300 0.0000
64.8400 1.0000
64.8500 2.0000
64.8600 1.0000
64.8700 1.0000
64.8800 4.0000
64.8900 1.0000
64.9000 6.0000
64.9100 2.0000
64.9200 6.0000
64.9300 2.0000
64.9400 1.0000
64.9500 1.0000
64.9600 2.0000
64.9700 4.0000
64.9800 2.0000
64.9900 2.0000
65.0000 4.0000
65.0100 4.0000
65.0200 0.0000
65.0300 1.0000
65.0400 1.0000
65.0500 0.0000
65.0600 5.0000
65.0700 2.0000
65.0800 0.0000
65.0900 5.0000
65.1000 3.0000
65.1100 1.0000
65.1200 1.0000
65.1300 1.0000
65.1400 0.0000
65.1500 5.0000
65.1600 1.0000
65.1700 2.0000
65.1800 2.0000
65.1900 3.0000
65.2000 3.0000
65.2100 2.0000
65.2200 3.0000
65.2300 0.0000
65.2400 2.0000
65.2500 5.0000
65.2600 6.0000
65.2700 3.0000
65.2800 2.0000
65.2900 3.0000
65.3000 4.0000
65.3100 2.0000
65.3200 2.0000
65.3300 1.0000
65.3400 1.0000
65.3500 1.0000
65.3600 6.0000
65.3700 3.0000
65.3800 4.0000
65.3900 5.0000
65.4000 2.0000
65.4100 7.0000
65.4200 3.0000
65.4300 1.0000
65.4400 0.0000
65.4500 4.0000
65.4600 2.0000
65.4700 4.0000
65.4800 4.0000
65.4900 1.0000
65.5000 3.0000
65.5100 5.0000
65.5200 6.0000
65.5300 3.0000
65.5400 1.0000
65.5500 1.0000
65.5600 1.0000
65.5700 4.0000
65.5800 2.0000
65.5900 3.0000
65.6000 2.0000
65.6100 1.0000
65.6200 2.0000
65.6300 8.0000
65.6400 3.0000
65.6500 4.0000
65.6600 1.0000
65.6700 2.0000
65.6800 2.0000
65.6900 1.0000
65.7000 1.0000
65.7100 2.0000
65.7200 5.0000
65.7300 2.0000
65.7400 5.0000
65.7500 1.0000
65.7600 2.0000
65.7700 5.0000
65.7800 5.0000
65.7900 6.0000
65.8000 1.0000
65.8100 2.0000
65.8200 3.0000
65.8300 4.0000
65.8400 3.0000
65.8500 3.0000
65.8600 7.0000
65.8700 2.0000
65.8800 3.0000
65.8900 4.0000
65.9000 3.0000
65.9100 1.0000
65.9200 4.0000
65.9300 3.0000
65.9400 5.0000
65.9500 4.0000
65.9600 6.0000
65.9700 4.0000
65.9800 4.0000
65.9900 3.0000
66.0000 2.0000
66.0100 5.0000
66.0200 3.0000
66.0300 2.0000
66.0400 6.0000
66.0500 1.0000
66.0600 5.0000
66.0700 2.0000
66.0800 4.0000
66.0900 4.0000
66.1000 3.0000
66.1100 4.0000
66.1200 3.0000
66.1300 1.0000
66.1400 2.0000
66.1500 2.0000
66.1600 3.0000
66.1700 2.0000
66.1800 2.0000
66.1900 2.0000
66.2000 0.0000
66.2100 5.0000
66.2200 5.0000
66.2300 5.0000
66.2400 1.0000
66.2500 1.0000
66.2600 6.0000
66.2700 3.0000
66.2800 3.0000
66.2900 3.0000
66.3000 3.0000
66.3100 5.0000
66.3200 3.0000
66.3300 6.0000
66.3400 4.0000
66.3500 1.0000
66.3600 3.0000
66.3700 5.0000
66.3800 3.0000
66.3900 4.0000
66.4000 1.0000
66.4100 4.0000
66.4200 1.0000
66.4300 2.0000
66.4400 5.0000
66.4500 1.0000
66.4600 1.0000
66.4700 3.0000
66.4800 3.0000
66.4900 4.0000
66.5000 4.0000
66.5100 4.0000
66.5200 1.0000
66.5300 4.0000
66.5400 3.0000
66.5500 1.0000
66.5600 1.0000
66.5700 2.0000
66.5800 1.0000
66.5900 5.0000
66.6000 1.0000
66.6100 2.0000
66.6200 2.0000
66.6300 3.0000
66.6400 1.0000
66.6500 0.0000
66.6600 4.0000
66.6700 2.0000
66.6800 5.0000
66.6900 7.0000
66.7000 5.0000
66.7100 3.0000
66.7200 2.0000
66.7300 1.0000
66.7400 2.0000
66.7500 0.0000
66.7600 2.0000
66.7700 3.0000
66.7800 3.0000
66.7900 1.0000
66.8000 2.0000
66.8100 3.0000
66.8200 4.0000
66.8300 4.0000
66.8400 0.0000
66.8500 1.0000
66.8600 2.0000
66.8700 2.0000
66.8800 4.0000
66.8900 3.0000
66.9000 3.0000
66.9100 4.0000
66.9200 3.0000
66.9300 2.0000
66.9400 5.0000
66.9500 1.0000
66.9600 1.0000
66.9700 2.0000
66.9800 3.0000
66.9900 2.0000
67.0000 2.0000
67.0100 2.0000
67.0200 3.0000
67.0300 1.0000
67.0400 2.0000
67.0500 2.0000
67.0600 1.0000
67.0700 1.0000
67.0800 4.0000
67.0900 1.0000
67.1000 3.0000
67.1100 6.0000
67.1200 5.0000
67.1300 0.0000
67.1400 3.0000
67.1500 0.0000
67.1600 0.0000
67.1700 1.0000
67.1800 2.0000
67.1900 2.0000
67.2000 2.0000
67.2100 1.0000
67.2200 4.0000
67.2300 2.0000
67.2400 3.0000
67.2500 2.0000
67.2600 2.0000
67.2700 0.0000
67.2800 3.0000
67.2900 3.0000
67.3000 4.0000
67.3100 2.0000
67.3200 4.0000
67.3300 2.0000
67.3400 2.0000
67.3500 3.0000
67.3600 4.0000
67.3700 3.0000
67.3800 0.0000
67.3900 0.0000
67.4000 3.0000
67.4100 4.0000
67.4200 3.0000
67.4300 4.0000
67.4400 4.0000
67.4500 2.0000
67.4600 4.0000
67.4700 3.0000
67.4800 2.0000
67.4900 2.0000
67.5000 5.0000
67.5100 3.0000
67.5200 8.0000
67.5300 2.0000
67.5400 3.0000
67.5500 6.0000
67.5600 3.0000
67.5700 2.0000
67.5800 3.0000
67.5900 4.0000
67.6000 5.0000
67.6100 4.0000
67.6200 6.0000
67.6300 3.0000
67.6400 3.0000
67.6500 2.0000
67.6600 2.0000
67.6700 5.0000
67.6800 3.0000
67.6900 2.0000
67.7000 3.0000
67.7100 2.0000
67.7200 4.0000
67.7300 3.0000
67.7400 3.0000
67.7500 5.0000
67.7600 3.0000
67.7700 0.0000
67.7800 1.0000
67.7900 1.0000
67.8000 4.0000
67.8100 2.0000
67.8200 1.0000
67.8300 4.0000
67.8400 6.0000
67.8500 3.0000
67.8600 3.0000
67.8700 2.0000
67.8800 2.0000
67.8900 1.0000
67.9000 4.0000
67.9100 6.0000
67.9200 5.0000
67.9300 4.0000
67.9400 2.0000
67.9500 3.0000
67.9600 1.0000
67.9700 2.0000
67.9800 1.0000
67.9900 2.0000
68.0000 2.0000
68.0100 2.0000
68.0200 1.0000
68.0300 3.0000
68.0400 1.0000
68.0500 3.0000
68.0600 3.0000
68.0700 2.0000
68.0800 4.0000
68.0900 0.0000
68.1000 1.0000
68.1100 3.0000
68.1200 4.0000
68.1300 6.0000
68.1400 4.0000
68.1500 3.0000
68.1600 2.0000
68.1700 4.0000
68.1800 1.0000
68.1900 2.0000
68.2000 3.0000
68.2100 4.0000
68.2200 3.0000
68.2300 6.0000
68.2400 4.0000
68.2500 8.0000
68.2600 5.0000
68.2700 3.0000
68.2800 3.0000
68.2900 2.0000
68.3000 3.0000
68.3100 4.0000
68.3200 8.0000
68.3300 3.0000
68.3400 3.0000
68.3500 5.0000
68.3600 4.0000
68.3700 1.0000
68.3800 3.0000
68.3900 4.0000
68.4000 2.0000
68.4100 6.0000
68.4200 4.0000
68.4300 2.0000
68.4400 2.0000
68.4500 3.0000
68.4600 2.0000
68.4700 5.0000
68.4800 3.0000
68.4900 4.0000
68.5000 0.0000
68.5100 0.0000
68.5200 4.0000
68.5300 3.0000
68.5400 0.0000
68.5500 0.0000
68.5600 2.0000
68.5700 3.0000
68.5800 6.0000
68.5900 2.0000
68.6000 2.0000
68.6100 2.0000
68.6200 4.0000
68.6300 5.0000
68.6400 5.0000
68.6500 1.0000
68.6600 1.0000
68.6700 1.0000
68.6800 4.0000
68.6900 2.0000
68.7000 3.0000
68.7100 2.0000
68.7200 1.0000
68.7300 3.0000
68.7400 5.0000
68.7500 1.0000
68.7600 4.0000
68.7700 3.0000
68.7800 5.0000
68.7900 5.0000
68.8000 3.0000
68.8100 2.0000
68.8200 1.0000
68.8300 4.0000
68.8400 3.0000
68.8500 4.0000
68.8600 2.0000
68.8700 1.0000
68.8800 3.0000
68.8900 5.0000
68.9000 1.0000
68.9100 6.0000
68.9200 4.0000
68.9300 4.0000
68.9400 4.0000
68.9500 4.0000
68.9600 2.0000
68.9700 0.0000
68.9800 4.0000
68.9900 3.0000
69.0000 4.0000
69.0100 2.0000
69.0200 2.0000
69.0300 1.0000
69.0400 0.0000
69.0500 1.0000
69.0600 3.0000
69.0700 2.0000
69.0800 3.0000
69.0900 4.0000
69.1000 5.0000
69.1100 2.0000
69.1200 0.0000
69.1300 5.0000
69.1400 2.0000
69.1500 5.0000
69.1600 5.0000
69.1700 3.0000
69.1800 3.0000
69.1900 3.0000
69.2000 3.0000
69.2100 3.0000
69.2200 5.0000
69.2300 4.0000
69.2400 4.0000
69.2500 5.0000
69.2600 6.0000
69.2700 2.0000
69.2800 2.0000
69.2900 3.0000
69.3000 4.0000
69.3100 1.0000
69.3200 4.0000
69.3300 7.0000
69.3400 4.0000
69.3500 1.0000
69.3600 2.0000
69.3700 4.0000
69.3800 2.0000
69.3900 6.0000
69.4000 6.0000
69.4100 2.0000
69.4200 7.0000
69.4300 5.0000
69.4400 4.0000
69.4500 4.0000
69.4600 4.0000
69.4700 6.0000
69.4800 4.0000
69.4900 4.0000
69.5000 4.0000
69.5100 2.0000
69.5200 4.0000
69.5300 3.0000
69.5400 4.0000
69.5500 1.0000
69.5600 5.0000
69.5700 7.0000
69.5800 4.0000
69.5900 4.0000
69.6000 3.0000
69.6100 2.0000
69.6200 4.0000
69.6300 2.0000
69.6400 2.0000
69.6500 4.0000
69.6600 3.0000
69.6700 5.0000
69.6800 5.0000
69.6900 3.0000
69.7000 5.0000
69.7100 7.0000
69.7200 4.0000
69.7300 8.0000
69.7400 2.0000
69.7500 5.0000
69.7600 4.0000
69.7700 2.0000
69.7800 3.0000
69.7900 3.0000
69.8000 3.0000
69.8100 4.0000
69.8200 6.0000
69.8300 5.0000
69.8400 4.0000
69.8500 4.0000
69.8600 5.0000
69.8700 5.0000
69.8800 4.0000
69.8900 4.0000
69.9000 3.0000
69.9100 2.0000
69.9200 2.0000
69.9300 0.0000
69.9400 0.0000
69.9500 2.0000
69.9600 4.0000
69.9700 4.0000
69.9800 0.0000
69.9900 2.0000
70.0000 4.0000
70.0100 3.0000
70.0200 2.0000
70.0300 4.0000
70.0400 6.0000
70.0500 5.0000
70.0600 5.0000
70.0700 0.0000
70.0800 2.0000
70.0900 3.0000
70.1000 2.0000
70.1100 3.0000
70.1200 3.0000
70.1300 2.0000
70.1400 4.0000
70.1500 3.0000
70.1600 6.0000
70.1700 3.0000
70.1800 2.0000
70.1900 1.0000
70.2000 5.0000
70.2100 2.0000
70.2200 6.0000
70.2300 2.0000
70.2400 4.0000
70.2500 5.0000
70.2600 3.0000
70.2700 4.0000
70.2800 6.0000
70.2900 5.0000
70.3000 7.0000
70.3100 2.0000
70.3200 2.0000
70.3300 7.0000
70.3400 6.0000
70.3500 7.0000
70.3600 6.0000
70.3700 6.0000
70.3800 4.0000
70.3900 5.0000
70.4000 3.0000
70.4100 5.0000
70.4200 1.0000
70.4300 4.0000
70.4400 1.0000
70.4500 5.0000
70.4600 5.0000
70.4700 0.0000
70.4800 0.0000
70.4900 3.0000
70.5000 7.0000
70.5100 4.0000
70.5200 1.0000
70.5300 5.0000
70.5400 5.0000
70.5500 5.0000
70.5600 2.0000
70.5700 4.0000
70.5800 4.0000
70.5900 3.0000
70.6000 2.0000
70.6100 1.0000
70.6200 6.0000
70.6300 5.0000
70.6400 2.0000
70.6500 3.0000
70.6600 6.0000
70.6700 2.0000
70.6800 4.0000
70.6900 4.0000
70.7000 7.0000
70.7100 5.0000
70.7200 4.0000
70.7300 4.0000
70.7400 3.0000
70.7500 8.0000
70.7600 3.0000
70.7700 5.0000
70.7800 8.0000
70.7900 7.0000
70.8000 5.0000
70.8100 4.0000
70.8200 3.0000
70.8300 8.0000
70.8400 4.0000
70.8500 4.0000
70.8600 5.0000
70.8700 4.0000
70.8800 4.0000
70.8900 1.0000
70.9000 4.0000
70.9100 5.0000
70.9200 3.0000
70.9300 6.0000
70.9400 7.0000
70.9500 1.0000
70.9600 2.0000
70.9700 4.0000
70.9800 6.0000
70.9900 2.0000
71.0000 5.0000
71.0100 3.0000
71.0200 6.0000
71.0300 4.0000
71.0400 3.0000
71.0500 4.0000
71.0600 4.0000
71.0700 5.0000
71.0800 4.0000
71.0900 2.0000
71.1000 4.0000
71.1100 6.0000
71.1200 2.0000
71.1300 1.0000
71.1400 4.0000
71.1500 2.0000
71.1600 1.0000
71.1700 6.0000
71.1800 4.0000
71.1900 6.0000
71.2000 7.0000
71.2100 6.0000
71.2200 9.0000
71.2300 3.0000
71.2400 6.0000
71.2500 3.0000
71.2600 2.0000
71.2700 5.0000
71.2800 3.0000
71.2900 3.0000
71.3000 3.0000
71.3100 7.0000
71.3200 7.0000
71.3300 0.0000
71.3400 1.0000
71.3500 3.0000
71.3600 2.0000
71.3700 3.0000
71.3800 3.0000
71.3900 6.0000
71.4000 3.0000
71.4100 4.0000
71.4200 5.0000
71.4300 5.0000
71.4400 5.0000
71.4500 1.0000
71.4600 4.0000
71.4700 5.0000
71.4800 4.0000
71.4900 3.0000
71.5000 0.0000
71.5100 3.0000
71.5200 1.0000
71.5300 4.0000
71.5400 3.0000
71.5500 4.0000
71.5600 2.0000
71.5700 2.0000
71.5800 2.0000
71.5900 7.0000
71.6000 6.0000
71.6100 3.0000
71.6200 4.0000
71.6300 7.0000
71.6400 4.0000
71.6500 2.0000
71.6600 4.0000
71.6700 3.0000
71.6800 1.0000
71.6900 2.0000
71.7000 2.0000
71.7100 1.0000
71.7200 0.0000
71.7300 1.0000
71.7400 3.0000
71.7500 4.0000
71.7600 1.0000
71.7700 3.0000
71.7800 2.0000
71.7900 4.0000
71.8000 1.0000
71.8100 2.0000
71.8200 4.0000
71.8300 6.0000
71.8400 8.0000
71.8500 4.0000
71.8600 2.0000
71.8700 0.0000
71.8800 1.0000
71.8900 4.0000
71.9000 4.0000
71.9100 0.0000
71.9200 3.0000
71.9300 7.0000
71.9400 2.0000
71.9500 5.0000
71.9600 2.0000
71.9700 3.0000
71.9800 5.0000
71.9900 7.0000
72.0000 4.0000
72.0100 3.0000
72.0200 5.0000
72.0300 5.0000
72.0400 3.0000
72.0500 3.0000
72.0600 1.0000
72.0700 1.0000
72.0800 2.0000
72.0900 0.0000
72.1000 3.0000
72.1100 0.0000
72.1200 2.0000
72.1300 4.0000
72.1400 3.0000
72.1500 1.0000
72.1600 3.0000
72.1700 2.0000
72.1800 5.0000
72.1900 2.0000
72.2000 2.0000
72.2100 3.0000
72.2200 5.0000
72.2300 3.0000
72.2400 2.0000
72.2500 3.0000
72.2600 2.0000
72.2700 4.0000
72.2800 1.0000
72.2900 3.0000
72.3000 1.0000
72.3100 7.0000
72.3200 4.0000
72.3300 3.0000
72.3400 4.0000
72.3500 4.0000
72.3600 3.0000
72.3700 7.0000
72.3800 3.0000
72.3900 5.0000
72.4000 5.0000
72.4100 4.0000
72.4200 5.0000
72.4300 3.0000
72.4400 3.0000
72.4500 1.0000
72.4600 2.0000
72.4700 2.0000
72.4800 2.0000
72.4900 1.0000
72.5000 5.0000
72.5100 5.0000
72.5200 6.0000
72.5300 3.0000
72.5400 3.0000
72.5500 2.0000
72.5600 0.0000
72.5700 0.0000
72.5800 0.0000
72.5900 3.0000
72.6000 4.0000
72.6100 2.0000
72.6200 5.0000
72.6300 2.0000
72.6400 3.0000
72.6500 5.0000
72.6600 4.0000
72.6700 4.0000
72.6800 3.0000
72.6900 1.0000
72.7000 2.0000
72.7100 1.0000
72.7200 2.0000
72.7300 4.0000
72.7400 5.0000
72.7500 6.0000
72.7600 2.0000
72.7700 1.0000
72.7800 2.0000
72.7900 2.0000
72.8000 3.0000
72.8100 5.0000
72.8200 4.0000
72.8300 2.0000
72.8400 0.0000
72.8500 1.0000
72.8600 1.0000
72.8700 4.0000
72.8800 3.0000
72.8900 4.0000
72.9000 5.0000
72.9100 1.0000
72.9200 0.0000
72.9300 2.0000
72.9400 4.0000
72.9500 3.0000
72.9600 1.0000
72.9700 1.0000
72.9800 6.0000
72.9900 4.0000
73.0000 5.0000
73.0100 3.0000
73.0200 5.0000
73.0300 2.0000
73.0400 0.0000
73.0500 6.0000
73.0600 4.0000
73.0700 4.0000
73.0800 1.0000
73.0900 4.0000
73.1000 1.0000
73.1100 2.0000
73.1200 3.0000
73.1300 2.0000
73.1400 4.0000
73.1500 0.0000
73.1600 0.0000
73.1700 1.0000
73.1800 2.0000
73.1900 4.0000
73.2000 4.0000
73.2100 3.0000
73.2200 6.0000
73.2300 1.0000
73.2400 3.0000
73.2500 2.0000
73.2600 3.0000
73.2700 8.0000
73.2800 3.0000
73.2900 2.0000
73.3000 4.0000
73.3100 1.0000
73.3200 2.0000
73.3300 2.0000
73.3400 1.0000
73.3500 2.0000
73.3600 1.0000
73.3700 5.0000
73.3800 1.0000
73.3900 3.0000
73.4000 1.0000
73.4100 1.0000
73.4200 0.0000
73.4300 2.0000
73.4400 1.0000
73.4500 0.0000
73.4600 1.0000
73.4700 1.0000
73.4800 3.0000
73.4900 2.0000
73.5000 2.0000
73.5100 4.0000
73.5200 2.0000
73.5300 6.0000
73.5400 2.0000
73.5500 2.0000
73.5600 3.0000
73.5700 3.0000
73.5800 2.0000
73.5900 5.0000
73.6000 2.0000
73.6100 4.0000
73.6200 2.0000
73.6300 1.0000
73.6400 1.0000
73.6500 0.0000
73.6600 4.0000
73.6700 3.0000
73.6800 5.0000
73.6900 2.0000
73.7000 5.0000
73.7100 1.0000
73.7200 2.0000
73.7300 3.0000
73.7400 2.0000
73.7500 3.0000
73.7600 3.0000
73.7700 2.0000
73.7800 4.0000
73.7900 3.0000
73.8000 2.0000
73.8100 2.0000
73.8200 3.0000
73.8300 2.0000
73.8400 3.0000
73.8500 3.0000
73.8600 0.0000
73.8700 3.0000
73.8800 3.0000
73.8900 3.0000
73.9000 3.0000
73.9100 1.0000
73.9200 1.0000
73.9300 2.0000
73.9400 1.0000
73.9500 4.0000
73.9600 2.0000
73.9700 2.0000
73.9800 2.0000
73.9900 3.0000
74.0000 5.0000
74.0100 3.0000
74.0200 2.0000
74.0300 4.0000
74.0400 5.0000
74.0500 2.0000
74.0600 3.0000
74.0700 2.0000
74.0800 2.0000
74.0900 1.0000
74.1000 3.0000
74.1100 4.0000
74.1200 2.0000
74.1300 3.0000
74.1400 4.0000
74.1500 1.0000
74.1600 5.0000
74.1700 3.0000
74.1800 4.0000
74.1900 1.0000
74.2000 2.0000
74.2100 2.0000
74.2200 2.0000
74.2300 3.0000
74.2400 4.0000
74.2500 5.0000
74.2600 4.0000
74.2700 3.0000
74.2800 1.0000
74.2900 2.0000
74.3000 5.0000
74.3100 5.0000
74.3200 3.0000
74.3300 2.0000
74.3400 5.0000
74.3500 1.0000
74.3600 2.0000
74.3700 6.0000
74.3800 4.0000
74.3900 0.0000
74.4000 1.0000
74.4100 5.0000
74.4200 3.0000
74.4300 0.0000
74.4400 3.0000
74.4500 3.0000
74.4600 1.0000
74.4700 6.0000
74.4800 3.0000
74.4900 1.0000
74.5000 2.0000
74.5100 2.0000
74.5200 2.0000
74.5300 0.0000
74.5400 4.0000
74.5500 4.0000
74.5600 0.0000
74.5700 1.0000
74.5800 0.0000
74.5900 3.0000
74.6000 2.0000
74.6100 2.0000
74.6200 2.0000
74.6300 2.0000
74.6400 1.0000
74.6500 4.0000
74.6600 1.0000
74.6700 4.0000
74.6800 3.0000
74.6900 1.0000
74.7000 1.0000
74.7100 2.0000
74.7200 4.0000
74.7300 2.0000
74.7400 1.0000
74.7500 2.0000
74.7600 4.0000
74.7700 0.0000
74.7800 1.0000
74.7900 3.0000
74.8000 2.0000
74.8100 1.0000
74.8200 3.0000
74.8300 3.0000
74.8400 2.0000
74.8500 5.0000
74.8600 0.0000
74.8700 3.0000
74.8800 1.0000
74.8900 6.0000
74.9000 0.0000
74.9100 2.0000
74.9200 5.0000
74.9300 4.0000
74.9400 3.0000
74.9500 2.0000
74.9600 1.0000
74.9700 4.0000
74.9800 5.0000
74.9900 5.0000
75.0000 2.0000
75.0100 1.0000
75.0200 2.0000
75.0300 1.0000
75.0400 2.0000
75.0500 4.0000
75.0600 1.0000
75.0700 1.0000
75.0800 4.0000
75.0900 5.0000
75.1000 5.0000
75.1100 2.0000
75.1200 4.0000
75.1300 2.0000
75.1400 1.0000
75.1500 3.0000
75.1600 3.0000
75.1700 2.0000
75.1800 0.0000
75.1900 1.0000
75.2000 1.0000
75.2100 5.0000
75.2200 9.0000
75.2300 4.0000
75.2400 6.0000
75.2500 4.0000
75.2600 4.0000
75.2700 2.0000
75.2800 2.0000
75.2900 4.0000
75.3000 5.0000
75.3100 1.0000
75.3200 3.0000
75.3300 2.0000
75.3400 0.0000
75.3500 2.0000
75.3600 0.0000
75.3700 1.0000
75.3800 4.0000
75.3900 3.0000
75.4000 4.0000
75.4100 4.0000
75.4200 3.0000
75.4300 2.0000
75.4400 3.0000
75.4500 1.0000
75.4600 4.0000
75.4700 2.0000
75.4800 3.0000
75.4900 1.0000
75.5000 2.0000
75.5100 3.0000
75.5200 2.0000
75.5300 8.0000
75.5400 2.0000
75.5500 6.0000
75.5600 3.0000
75.5700 4.0000
75.5800 3.0000
75.5900 5.0000
75.6000 2.0000
75.6100 3.0000
75.6200 2.0000
75.6300 0.0000
75.6400 4.0000
75.6500 4.0000
75.6600 2.0000
75.6700 3.0000
75.6800 2.0000
75.6900 5.0000
75.7000 4.0000
75.7100 0.0000
75.7200 5.0000
75.7300 4.0000
75.7400 5.0000
75.7500 0.0000
75.7600 4.0000
75.7700 2.0000
75.7800 4.0000
75.7900 3.0000
75.8000 4.0000
75.8100 2.0000
75.8200 1.0000
75.8300 2.0000
75.8400 5.0000
75.8500 1.0000
75.8600 2.0000
75.8700 2.0000
75.8800 3.0000
75.8900 1.0000
75.9000 1.0000
75.9100 3.0000
75.9200 4.0000
75.9300 1.0000
75.9400 2.0000
75.9500 2.0000
75.9600 1.0000
75.9700 1.0000
75.9800 3.0000
75.9900 2.0000
76.0000 4.0000
76.0100 1.0000
76.0200 5.0000
76.0300 1.0000
76.0400 2.0000
76.0500 1.0000
76.0600 4.0000
76.0700 1.0000
76.0800 2.0000
76.0900 5.0000
76.1000 4.0000
76.1100 2.0000
76.1200 2.0000
76.1300 2.0000
76.1400 1.0000
76.1500 2.0000
76.1600 4.0000
76.1700 3.0000
76.1800 6.0000
76.1900 5.0000
76.2000 6.0000
76.2100 2.0000
76.2200 4.0000
76.2300 4.0000
76.2400 3.0000
76.2500 2.0000
76.2600 2.0000
76.2700 2.0000
76.2800 4.0000
76.2900 1.0000
76.3000 2.0000
76.3100 6.0000
76.3200 2.0000
76.3300 3.0000
76.3400 0.0000
76.3500 1.0000
76.3600 4.0000
76.3700 1.0000
76.3800 5.0000
76.3900 2.0000
76.4000 0.0000
76.4100 2.0000
76.4200 4.0000
76.4300 2.0000
76.4400 2.0000
76.4500 4.0000
76.4600 4.0000
76.4700 3.0000
76.4800 4.0000
76.4900 3.0000
76.5000 2.0000
76.5100 5.0000
76.5200 2.0000
76.5300 3.0000
76.5400 1.0000
76.5500 3.0000
76.5600 1.0000
76.5700 4.0000
76.5800 2.0000
76.5900 4.0000
76.6000 1.0000
76.6100 5.0000
76.6200 3.0000
76.6300 7.0000
76.6400 4.0000
76.6500 4.0000
76.6600 3.0000
76.6700 5.0000
76.6800 3.0000
76.6900 3.0000
76.7000 4.0000
76.7100 4.0000
76.7200 3.0000
76.7300 3.0000
76.7400 4.0000
76.7500 7.0000
76.7600 4.0000
76.7700 2.0000
76.7800 4.0000
76.7900 3.0000
76.8000 2.0000
76.8100 2.0000
76.8200 2.0000
76.8300 4.0000
76.8400 1.0000
76.8500 3.0000
76.8600 1.0000
76.8700 0.0000
76.8800 7.0000
76.8900 2.0000
76.9000 0.0000
76.9100 0.0000
76.9200 1.0000
76.9300 3.0000
76.9400 2.0000
76.9500 0.0000
76.9600 4.0000
76.9700 2.0000
76.9800 3.0000
76.9900 3.0000
77.0000 1.0000
77.0100 3.0000
77.0200 3.0000
77.0300 3.0000
77.0400 2.0000
77.0500 4.0000
77.0600 4.0000
77.0700 3.0000
77.0800 3.0000
77.0900 3.0000
77.1000 3.0000
77.1100 2.0000
77.1200 2.0000
77.1300 4.0000
77.1400 1.0000
77.1500 2.0000
77.1600 1.0000
77.1700 0.0000
77.1800 6.0000
77.1900 5.0000
77.2000 1.0000
77.2100 1.0000
77.2200 5.0000
77.2300 1.0000
77.2400 1.0000
77.2500 0.0000
77.2600 4.0000
77.2700 6.0000
77.2800 1.0000
77.2900 2.0000
77.3000 1.0000
77.3100 0.0000
77.3200 3.0000
77.3300 1.0000
77.3400 1.0000
77.3500 4.0000
77.3600 2.0000
77.3700 2.0000
77.3800 2.0000
77.3900 2.0000
77.4000 0.0000
77.4100 2.0000
77.4200 3.0000
77.4300 5.0000
77.4400 1.0000
77.4500 3.0000
77.4600 3.0000
77.4700 2.0000
77.4800 3.0000
77.4900 3.0000
77.5000 4.0000
77.5100 5.0000
77.5200 2.0000
77.5300 3.0000
77.5400 2.0000
77.5500 3.0000
77.5600 1.0000
77.5700 6.0000
77.5800 5.0000
77.5900 0.0000
77.6000 2.0000
77.6100 6.0000
77.6200 5.0000
77.6300 2.0000
77.6400 3.0000
77.6500 3.0000
77.6600 1.0000
77.6700 2.0000
77.6800 6.0000
77.6900 1.0000
77.7000 4.0000
77.7100 1.0000
77.7200 1.0000
77.7300 4.0000
77.7400 3.0000
77.7500 2.0000
77.7600 3.0000
77.7700 4.0000
77.7800 2.0000
77.7900 1.0000
77.8000 1.0000
77.8100 4.0000
77.8200 2.0000
77.8300 3.0000
77.8400 0.0000
77.8500 0.0000
77.8600 4.0000
77.8700 2.0000
77.8800 3.0000
77.8900 2.0000
77.9000 3.0000
77.9100 5.0000
77.9200 4.0000
77.9300 2.0000
77.9400 1.0000
77.9500 3.0000
77.9600 3.0000
77.9700 2.0000
77.9800 2.0000
77.9900 3.0000
78.0000 3.0000
78.0100 7.0000
78.0200 5.0000
78.0300 2.0000
78.0400 3.0000
78.0500 7.0000
78.0600 0.0000
78.0700 4.0000
78.0800 4.0000
78.0900 4.0000
78.1000 6.0000
78.1100 5.0000
78.1200 5.0000
78.1300 2.0000
78.1400 5.0000
78.1500 7.0000
78.1600 4.0000
78.1700 4.0000
78.1800 2.0000
78.1900 2.0000
78.2000 3.0000
78.2100 1.0000
78.2200 5.0000
78.2300 5.0000
78.2400 1.0000
78.2500 3.0000
78.2600 0.0000
78.2700 6.0000
78.2800 6.0000
78.2900 2.0000
78.3000 2.0000
78.3100 4.0000
78.3200 4.0000
78.3300 3.0000
78.3400 3.0000
78.3500 1.0000
78.3600 1.0000
78.3700 4.0000
78.3800 4.0000
78.3900 3.0000
78.4000 6.0000
78.4100 7.0000
78.4200 1.0000
78.4300 2.0000
78.4400 4.0000
78.4500 4.0000
78.4600 4.0000
78.4700 3.0000
78.4800 4.0000
78.4900 3.0000
78.5000 5.0000
78.5100 5.0000
78.5200 1.0000
78.5300 3.0000
78.5400 1.0000
78.5500 2.0000
78.5600 2.0000
78.5700 5.0000
78.5800 2.0000
78.5900 2.0000
78.6000 7.0000
78.6100 4.0000
78.6200 1.0000
78.6300 2.0000
78.6400 1.0000
78.6500 2.0000
78.6600 3.0000
78.6700 2.0000
78.6800 5.0000
78.6900 2.0000
78.7000 5.0000
78.7100 2.0000
78.7200 3.0000
78.7300 4.0000
78.7400 7.0000
78.7500 4.0000
78.7600 5.0000
78.7700 1.0000
78.7800 3.0000
78.7900 1.0000
78.8000 1.0000
78.8100 3.0000
78.8200 4.0000
78.8300 2.0000
78.8400 2.0000
78.8500 2.0000
78.8600 3.0000
78.8700 3.0000
78.8800 3.0000
78.8900 3.0000
78.9000 4.0000
78.9100 3.0000
78.9200 0.0000
78.9300 0.0000
78.9400 1.0000
78.9500 1.0000
78.9600 5.0000
78.9700 3.0000
78.9800 2.0000
78.9900 3.0000
79.0000 3.0000
79.0100 3.0000
79.0200 3.0000
79.0300 4.0000
79.0400 0.0000
79.0500 4.0000
79.0600 4.0000
79.0700 1.0000
79.0800 2.0000
79.0900 2.0000
79.1000 4.0000
79.1100 3.0000
79.1200 2.0000
79.1300 2.0000
79.1400 4.0000
79.1500 3.0000
79.1600 4.0000
79.1700 2.0000
79.1800 3.0000
79.1900 4.0000
79.2000 2.0000
79.2100 3.0000
79.2200 3.0000
79.2300 2.0000
79.2400 5.0000
79.2500 3.0000
79.2600 5.0000
79.2700 5.0000
79.2800 7.0000
79.2900 1.0000
79.3000 5.0000
79.3100 3.0000
79.3200 2.0000
79.3300 2.0000
79.3400 4.0000
79.3500 0.0000
79.3600 2.0000
79.3700 1.0000
79.3800 0.0000
79.3900 3.0000
79.4000 2.0000
79.4100 0.0000
79.4200 3.0000
79.4300 4.0000
79.4400 1.0000
79.4500 0.0000
79.4600 3.0000
79.4700 0.0000
79.4800 2.0000
79.4900 1.0000
79.5000 2.0000
79.5100 3.0000
79.5200 2.0000
79.5300 3.0000
79.5400 2.0000
79.5500 1.0000
79.5600 3.0000
79.5700 2.0000
79.5800 3.0000
79.5900 1.0000
79.6000 2.0000
79.6100 0.0000
79.6200 5.0000
79.6300 5.0000
79.6400 4.0000
79.6500 3.0000
79.6600 2.0000
79.6700 4.0000
79.6800 3.0000
79.6900 2.0000
79.7000 4.0000
79.7100 3.0000
79.7200 4.0000
79.7300 2.0000
79.7400 2.0000
79.7500 4.0000
79.7600 1.0000
79.7700 1.0000
79.7800 0.0000
79.7900 2.0000
79.8000 3.0000
79.8100 4.0000
79.8200 3.0000
79.8300 2.0000
79.8400 3.0000
79.8500 1.0000
79.8600 2.0000
79.8700 1.0000
79.8800 3.0000
79.8900 5.0000
79.9000 5.0000
79.9100 0.0000
79.9200 5.0000
79.9300 3.0000
79.9400 1.0000
79.9500 0.0000
79.9600 3.0000
79.9700 2.0000
79.9800 2.0000
79.9900 2.0000
80.0000 3.0000
80.0100 2.0000
80.0200 3.0000
80.0300 2.0000
80.0400 4.0000
80.0500 5.0000
80.0600 1.0000
80.0700 3.0000
80.0800 4.0000
80.0900 2.0000
80.1000 1.0000
80.1100 2.0000
80.1200 7.0000
80.1300 6.0000
80.1400 2.0000
80.1500 0.0000
80.1600 2.0000
80.1700 3.0000
80.1800 5.0000
80.1900 2.0000
80.2000 2.0000
80.2100 7.0000
80.2200 7.0000
80.2300 4.0000
80.2400 2.0000
80.2500 3.0000
80.2600 3.0000
80.2700 1.0000
80.2800 3.0000
80.2900 2.0000
80.3000 1.0000
80.3100 4.0000
80.3200 2.0000
80.3300 2.0000
80.3400 2.0000
80.3500 3.0000
80.3600 1.0000
80.3700 5.0000
80.3800 2.0000
80.3900 3.0000
80.4000 2.0000
80.4100 4.0000
80.4200 1.0000
80.4300 5.0000
80.4400 4.0000
80.4500 8.0000
80.4600 0.0000
80.4700 2.0000
80.4800 0.0000
80.4900 4.0000
80.5000 3.0000
80.5100 3.0000
80.5200 1.0000
80.5300 2.0000
80.5400 6.0000
80.5500 4.0000
80.5600 2.0000
80.5700 2.0000
80.5800 3.0000
80.5900 1.0000
80.6000 6.0000
80.6100 3.0000
80.6200 4.0000
80.6300 3.0000
80.6400 5.0000
80.6500 7.0000
80.6600 3.0000
80.6700 1.0000
80.6800 0.0000
80.6900 1.0000
80.7000 2.0000
80.7100 2.0000
80.7200 5.0000
80.7300 1.0000
80.7400 4.0000
80.7500 3.0000
80.7600 2.0000
80.7700 2.0000
80.7800 7.0000
80.7900 1.0000
80.8000 2.0000
80.8100 2.0000
80.8200 6.0000
80.8300 4.0000
80.8400 3.0000
80.8500 3.0000
80.8600 3.0000
80.8700 4.0000
80.8800 3.0000
80.8900 4.0000
80.9000 4.0000
80.9100 5.0000
80.9200 4.0000
80.9300 2.0000
80.9400 5.0000
80.9500 6.0000
80.9600 2.0000
80.9700 0.0000
80.9800 5.0000
80.9900 2.0000
81.0000 2.0000
81.0100 2.0000
81.0200 2.0000
81.0300 3.0000
81.0400 4.0000
81.0500 5.0000
81.0600 4.0000
81.0700 4.0000
81.0800 1.0000
81.0900 1.0000
81.1000 4.0000
81.1100 1.0000
81.1200 2.0000
81.1300 4.0000
81.1400 1.0000
81.1500 2.0000
81.1600 5.0000
81.1700 3.0000
81.1800 5.0000
81.1900 2.0000
81.2000 4.0000
81.2100 4.0000
81.2200 4.0000
81.2300 5.0000
81.2400 3.0000
81.2500 1.0000
81.2600 1.0000
81.2700 4.0000
81.2800 4.0000
81.2900 2.0000
81.3000 4.0000
81.3100 3.0000
81.3200 0.0000
81.3300 5.0000
81.3400 3.0000
81.3500 3.0000
81.3600 1.0000
81.3700 4.0000
81.3800 2.0000
81.3900 5.0000
81.4000 5.0000
81.4100 3.0000
81.4200 5.0000
81.4300 2.0000
81.4400 5.0000
81.4500 1.0000
81.4600 0.0000
81.4700 3.0000
81.4800 1.0000
81.4900 0.0000
81.5000 2.0000
81.5100 5.0000
81.5200 5.0000
81.5300 2.0000
81.5400 5.0000
81.5500 4.0000
81.5600 3.0000
81.5700 5.0000
81.5800 2.0000
81.5900 4.0000
81.6000 2.0000
81.6100 1.0000
81.6200 1.0000
81.6300 3.0000
81.6400 4.0000
81.6500 3.0000
81.6600 2.0000
81.6700 1.0000
81.6800 0.0000
81.6900 2.0000
81.7000 4.0000
81.7100 3.0000
81.7200 2.0000
81.7300 1.0000
81.7400 4.0000
81.7500 2.0000
81.7600 1.0000
81.7700 5.0000
81.7800 3.0000
81.7900 2.0000
81.8000 2.0000
81.8100 2.0000
81.8200 4.0000
81.8300 3.0000
81.8400 7.0000
81.8500 3.0000
81.8600 3.0000
81.8700 2.0000
81.8800 1.0000
81.8900 3.0000
81.9000 5.0000
81.9100 4.0000
81.9200 3.0000
81.9300 3.0000
81.9400 2.0000
81.9500 5.0000
81.9600 2.0000
81.9700 2.0000
81.9800 5.0000
81.9900 4.0000
82.0000 4.0000
82.0100 5.0000
82.0200 0.0000
82.0300 2.0000
82.0400 1.0000
82.0500 3.0000
82.0600 2.0000
82.0700 3.0000
82.0800 5.0000
82.0900 3.0000
82.1000 1.0000
82.1100 1.0000
82.1200 4.0000
82.1300 2.0000
82.1400 4.0000
82.1500 4.0000
82.1600 4.0000
82.1700 1.0000
82.1800 1.0000
82.1900 2.0000
82.2000 4.0000
82.2100 3.0000
82.2200 3.0000
82.2300 5.0000
82.2400 6.0000
82.2500 1.0000
82.2600 5.0000
82.2700 2.0000
82.2800 2.0000
82.2900 7.0000
82.3000 2.0000
82.3100 3.0000
82.3200 3.0000
82.3300 2.0000
82.3400 6.0000
82.3500 2.0000
82.3600 1.0000
82.3700 1.0000
82.3800 5.0000
82.3900 1.0000
82.4000 2.0000
82.4100 5.0000
82.4200 4.0000
82.4300 2.0000
82.4400 2.0000
82.4500 2.0000
82.4600 3.0000
82.4700 0.0000
82.4800 3.0000
82.4900 4.0000
82.5000 3.0000
82.5100 1.0000
82.5200 2.0000
82.5300 4.0000
82.5400 2.0000
82.5500 3.0000
82.5600 2.0000
82.5700 0.0000
82.5800 3.0000
82.5900 0.0000
82.6000 4.0000
82.6100 2.0000
82.6200 4.0000
82.6300 6.0000
82.6400 4.0000
82.6500 6.0000
82.6600 5.0000
82.6700 2.0000
82.6800 2.0000
82.6900 3.0000
82.7000 1.0000
82.7100 5.0000
82.7200 3.0000
82.7300 1.0000
82.7400 5.0000
82.7500 2.0000
82.7600 1.0000
82.7700 0.0000
82.7800 0.0000
82.7900 3.0000
82.8000 2.0000
82.8100 0.0000
82.8200 4.0000
82.8300 5.0000
82.8400 3.0000
82.8500 5.0000
82.8600 8.0000
82.8700 6.0000
82.8800 1.0000
82.8900 6.0000
82.9000 2.0000
82.9100 2.0000
82.9200 5.0000
82.9300 5.0000
82.9400 1.0000
82.9500 1.0000
82.9600 3.0000
82.9700 4.0000
82.9800 3.0000
82.9900 2.0000
83.0000 3.0000
83.0100 7.0000
83.0200 2.0000
83.0300 8.0000
83.0400 5.0000
83.0500 2.0000
83.0600 2.0000
83.0700 3.0000
83.0800 3.0000
83.0900 0.0000
83.1000 6.0000
83.1100 4.0000
83.1200 4.0000
83.1300 2.0000
83.1400 1.0000
83.1500 3.0000
83.1600 5.0000
83.1700 5.0000
83.1800 5.0000
83.1900 1.0000
83.2000 5.0000
83.2100 1.0000
83.2200 1.0000
83.2300 1.0000
83.2400 1.0000
83.2500 5.0000
83.2600 7.0000
83.2700 4.0000
83.2800 7.0000
83.2900 0.0000
83.3000 3.0000
83.3100 1.0000
83.3200 1.0000
83.3300 8.0000
83.3400 6.0000
83.3500 1.0000
83.3600 4.0000
83.3700 1.0000
83.3800 4.0000
83.3900 5.0000
83.4000 2.0000
83.4100 3.0000
83.4200 6.0000
83.4300 4.0000
83.4400 6.0000
83.4500 1.0000
83.4600 2.0000
83.4700 1.0000
83.4800 5.0000
83.4900 2.0000
83.5000 3.0000
83.5100 2.0000
83.5200 3.0000
83.5300 2.0000
83.5400 4.0000
83.5500 2.0000
83.5600 2.0000
83.5700 4.0000
83.5800 6.0000
83.5900 6.0000
83.6000 2.0000
83.6100 2.0000
83.6200 0.0000
83.6300 3.0000
83.6400 2.0000
83.6500 1.0000
83.6600 0.0000
83.6700 0.0000
83.6800 4.0000
83.6900 5.0000
83.7000 4.0000
83.7100 2.0000
83.7200 2.0000
83.7300 2.0000
83.7400 6.0000
83.7500 1.0000
83.7600 4.0000
83.7700 3.0000
83.7800 5.0000
83.7900 4.0000
83.8000 4.0000
83.8100 6.0000
83.8200 3.0000
83.8300 6.0000
83.8400 5.0000
83.8500 5.0000
83.8600 1.0000
83.8700 2.0000
83.8800 1.0000
83.8900 2.0000
83.9000 3.0000
83.9100 2.0000
83.9200 8.0000
83.9300 2.0000
83.9400 1.0000
83.9500 7.0000
83.9600 1.0000
83.9700 4.0000
83.9800 2.0000
83.9900 1.0000
84.0000 3.0000
84.0100 2.0000
84.0200 2.0000
84.0300 2.0000
84.0400 2.0000
84.0500 4.0000
84.0600 0.0000
84.0700 2.0000
84.0800 2.0000
84.0900 2.0000
84.1000 6.0000
84.1100 3.0000
84.1200 4.0000
84.1300 3.0000
84.1400 6.0000
84.1500 5.0000
84.1600 3.0000
84.1700 3.0000
84.1800 4.0000
84.1900 4.0000
84.2000 2.0000
84.2100 7.0000
84.2200 4.0000
84.2300 2.0000
84.2400 4.0000
84.2500 1.0000
84.2600 6.0000
84.2700 2.0000
84.2800 6.0000
84.2900 2.0000
84.3000 4.0000
84.3100 2.0000
84.3200 2.0000
84.3300 2.0000
84.3400 0.0000
84.3500 4.0000
84.3600 3.0000
84.3700 5.0000
84.3800 2.0000
84.3900 2.0000
84.4000 6.0000
84.4100 3.0000
84.4200 3.0000
84.4300 6.0000
84.4400 3.0000
84.4500 1.0000
84.4600 6.0000
84.4700 2.0000
84.4800 3.0000
84.4900 5.0000
84.5000 5.0000
84.5100 5.0000
84.5200 3.0000
84.5300 4.0000
84.5400 5.0000
84.5500 6.0000
84.5600 5.0000
84.5700 2.0000
84.5800 2.0000
84.5900 3.0000
84.6000 6.0000
84.6100 6.0000
84.6200 3.0000
84.6300 2.0000
84.6400 4.0000
84.6500 6.0000
84.6600 0.0000
84.6700 2.0000
84.6800 3.0000
84.6900 7.0000
84.7000 5.0000
84.7100 2.0000
84.7200 3.0000
84.7300 5.0000
84.7400 4.0000
84.7500 4.0000
84.7600 6.0000
84.7700 6.0000
84.7800 5.0000
84.7900 2.0000
84.8000 5.0000
84.8100 3.0000
84.8200 3.0000
84.8300 2.0000
84.8400 7.0000
84.8500 3.0000
84.8600 2.0000
84.8700 8.0000
84.8800 5.0000
84.8900 6.0000
84.9000 5.0000
84.9100 1.0000
84.9200 6.0000
84.9300 2.0000
84.9400 2.0000
84.9500 4.0000
84.9600 8.0000
84.9700 4.0000
84.9800 0.0000
84.9900 4.0000
85.0000 7.0000
85.0100 5.0000
85.0200 3.0000
85.0300 6.0000
85.0400 5.0000
85.0500 7.0000
85.0600 3.0000
85.0700 4.0000
85.0800 1.0000
85.0900 4.0000
85.1000 3.0000
85.1100 5.0000
85.1200 2.0000
85.1300 5.0000
85.1400 6.0000
85.1500 3.0000
85.1600 1.0000
85.1700 5.0000
85.1800 2.0000
85.1900 1.0000
85.2000 1.0000
85.2100 1.0000
85.2200 2.0000
85.2300 3.0000
85.2400 1.0000
85.2500 3.0000
85.2600 7.0000
85.2700 5.0000
85.2800 1.0000
85.2900 4.0000
85.3000 6.0000
85.3100 5.0000
85.3200 2.0000
85.3300 4.0000
85.3400 3.0000
85.3500 4.0000
85.3600 5.0000
85.3700 5.0000
85.3800 1.0000
85.3900 3.0000
85.4000 3.0000
85.4100 3.0000
85.4200 6.0000
85.4300 3.0000
85.4400 5.0000
85.4500 4.0000
85.4600 2.0000
85.4700 5.0000
85.4800 1.0000
85.4900 1.0000
85.5000 4.0000
85.5100 2.0000
85.5200 3.0000
85.5300 4.0000
85.5400 2.0000
85.5500 5.0000
85.5600 4.0000
85.5700 2.0000
85.5800 6.0000
85.5900 2.0000
85.6000 4.0000
85.6100 3.0000
85.6200 3.0000
85.6300 5.0000
85.6400 5.0000
85.6500 4.0000
85.6600 2.0000
85.6700 2.0000
85.6800 5.0000
85.6900 2.0000
85.7000 4.0000
85.7100 5.0000
85.7200 1.0000
85.7300 2.0000
85.7400 5.0000
85.7500 2.0000
85.7600 4.0000
85.7700 3.0000
85.7800 4.0000
85.7900 2.0000
85.8000 1.0000
85.8100 0.0000
85.8200 1.0000
85.8300 9.0000
85.8400 3.0000
85.8500 3.0000
85.8600 2.0000
85.8700 6.0000
85.8800 4.0000
85.8900 4.0000
85.9000 2.0000
85.9100 3.0000
85.9200 2.0000
85.9300 5.0000
85.9400 5.0000
85.9500 7.0000
85.9600 8.0000
85.9700 1.0000
85.9800 2.0000
85.9900 0.0000
86.0000 2.0000
86.0100 5.0000
86.0200 2.0000
86.0300 1.0000
86.0400 4.0000
86.0500 5.0000
86.0600 3.0000
86.0700 3.0000
86.0800 10.0000
86.0900 2.0000
86.1000 3.0000
86.1100 7.0000
86.1200 2.0000
86.1300 5.0000
86.1400 4.0000
86.1500 5.0000
86.1600 4.0000
86.1700 3.0000
86.1800 5.0000
86.1900 3.0000
86.2000 4.0000
86.2100 5.0000
86.2200 4.0000
86.2300 6.0000
86.2400 2.0000
86.2500 0.0000
86.2600 6.0000
86.2700 7.0000
86.2800 4.0000
86.2900 5.0000
86.3000 2.0000
86.3100 4.0000
86.3200 3.0000
86.3300 6.0000
86.3400 5.0000
86.3500 1.0000
86.3600 7.0000
86.3700 4.0000
86.3800 5.0000
86.3900 8.0000
86.4000 2.0000
86.4100 3.0000
86.4200 5.0000
86.4300 11.0000
86.4400 3.0000
86.4500 3.0000
86.4600 4.0000
86.4700 9.0000
86.4800 5.0000
86.4900 4.0000
86.5000 3.0000
86.5100 2.0000
86.5200 5.0000
86.5300 4.0000
86.5400 6.0000
86.5500 7.0000
86.5600 4.0000
86.5700 1.0000
86.5800 2.0000
86.5900 2.0000
86.6000 3.0000
86.6100 4.0000
86.6200 6.0000
86.6300 5.0000
86.6400 2.0000
86.6500 3.0000
86.6600 8.0000
86.6700 4.0000
86.6800 4.0000
86.6900 4.0000
86.7000 7.0000
86.7100 6.0000
86.7200 4.0000
86.7300 7.0000
86.7400 4.0000
86.7500 6.0000
86.7600 5.0000
86.7700 7.0000
86.7800 3.0000
86.7900 5.0000
86.8000 3.0000
86.8100 4.0000
86.8200 5.0000
86.8300 3.0000
86.8400 6.0000
86.8500 5.0000
86.8600 4.0000
86.8700 5.0000
86.8800 4.0000
86.8900 2.0000
86.9000 1.0000
86.9100 4.0000
86.9200 4.0000
86.9300 3.0000
86.9400 5.0000
86.9500 3.0000
86.9600 9.0000
86.9700 6.0000
86.9800 5.0000
86.9900 5.0000
87.0000 2.0000
87.0100 0.0000
87.0200 3.0000
87.0300 3.0000
87.0400 4.0000
87.0500 6.0000
87.0600 1.0000
87.0700 3.0000
87.0800 3.0000
87.0900 8.0000
87.1000 2.0000
87.1100 4.0000
87.1200 7.0000
87.1300 4.0000
87.1400 2.0000
87.1500 6.0000
87.1600 5.0000
87.1700 7.0000
87.1800 5.0000
87.1900 6.0000
87.2000 7.0000
87.2100 6.0000
87.2200 3.0000
87.2300 4.0000
87.2400 8.0000
87.2500 6.0000
87.2600 3.0000
87.2700 2.0000
87.2800 6.0000
87.2900 3.0000
87.3000 5.0000
87.3100 4.0000
87.3200 2.0000
87.3300 2.0000
87.3400 3.0000
87.3500 4.0000
87.3600 4.0000
87.3700 3.0000
87.3800 5.0000
87.3900 4.0000
87.4000 5.0000
87.4100 7.0000
87.4200 3.0000
87.4300 3.0000
87.4400 4.0000
87.4500 4.0000
87.4600 4.0000
87.4700 3.0000
87.4800 5.0000
87.4900 9.0000
87.5000 4.0000
87.5100 4.0000
87.5200 4.0000
87.5300 5.0000
87.5400 4.0000
87.5500 8.0000
87.5600 5.0000
87.5700 1.0000
87.5800 3.0000
87.5900 7.0000
87.6000 1.0000
87.6100 4.0000
87.6200 5.0000
87.6300 3.0000
87.6400 5.0000
87.6500 2.0000
87.6600 1.0000
87.6700 4.0000
87.6800 7.0000
87.6900 2.0000
87.7000 4.0000
87.7100 3.0000
87.7200 8.0000
87.7300 7.0000
87.7400 4.0000
87.7500 4.0000
87.7600 3.0000
87.7700 2.0000
87.7800 6.0000
87.7900 6.0000
87.8000 9.0000
87.8100 7.0000
87.8200 5.0000
87.8300 1.0000
87.8400 5.0000
87.8500 5.0000
87.8600 5.0000
87.8700 5.0000
87.8800 7.0000
87.8900 3.0000
87.9000 5.0000
87.9100 6.0000
87.9200 7.0000
87.9300 6.0000
87.9400 7.0000
87.9500 6.0000
87.9600 7.0000
87.9700 3.0000
87.9800 3.0000
87.9900 5.0000
88.0000 3.0000
88.0100 9.0000
88.0200 6.0000
88.0300 9.0000
88.0400 4.0000
88.0500 5.0000
88.0600 9.0000
88.0700 5.0000
88.0800 4.0000
88.0900 4.0000
88.1000 6.0000
88.1100 4.0000
88.1200 5.0000
88.1300 6.0000
88.1400 3.0000
88.1500 4.0000
88.1600 1.0000
88.1700 4.0000
88.1800 4.0000
88.1900 6.0000
88.2000 6.0000
88.2100 1.0000
88.2200 5.0000
88.2300 3.0000
88.2400 10.0000
88.2500 5.0000
88.2600 6.0000
88.2700 6.0000
88.2800 9.0000
88.2900 6.0000
88.3000 4.0000
88.3100 9.0000
88.3200 2.0000
88.3300 8.0000
88.3400 6.0000
88.3500 8.0000
88.3600 8.0000
88.3700 5.0000
88.3800 7.0000
88.3900 5.0000
88.4000 7.0000
88.4100 11.0000
88.4200 10.0000
88.4300 6.0000
88.4400 7.0000
88.4500 5.0000
88.4600 7.0000
88.4700 6.0000
88.4800 6.0000
88.4900 6.0000
88.5000 1.0000
88.5100 4.0000
88.5200 4.0000
88.5300 9.0000
88.5400 9.0000
88.5500 5.0000
88.5600 8.0000
88.5700 10.0000
88.5800 7.0000
88.5900 8.0000
88.6000 4.0000
88.6100 3.0000
88.6200 9.0000
88.6300 6.0000
88.6400 7.0000
88.6500 7.0000
88.6600 9.0000
88.6700 7.0000
88.6800 11.0000
88.6900 5.0000
88.7000 8.0000
88.7100 6.0000
88.7200 3.0000
88.7300 3.0000
88.7400 5.0000
88.7500 7.0000
88.7600 2.0000
88.7700 6.0000
88.7800 6.0000
88.7900 7.0000
88.8000 4.0000
88.8100 5.0000
88.8200 11.0000
88.8300 5.0000
88.8400 7.0000
88.8500 8.0000
88.8600 9.0000
88.8700 9.0000
88.8800 6.0000
88.8900 4.0000
88.9000 5.0000
88.9100 2.0000
88.9200 2.0000
88.9300 9.0000
88.9400 5.0000
88.9500 12.0000
88.9600 6.0000
88.9700 6.0000
88.9800 8.0000
88.9900 4.0000
89.0000 6.0000
89.0100 5.0000
89.0200 4.0000
89.0300 10.0000
89.0400 5.0000
89.0500 11.0000
89.0600 6.0000
89.0700 5.0000
89.0800 3.0000
89.0900 3.0000
89.1000 4.0000
89.1100 4.0000
89.1200 9.0000
89.1300 13.0000
89.1400 10.0000
89.1500 10.0000
89.1600 6.0000
89.1700 2.0000
89.1800 10.0000
89.1900 12.0000
89.2000 5.0000
89.2100 4.0000
89.2200 7.0000
89.2300 7.0000
89.2400 7.0000
89.2500 5.0000
89.2600 7.0000
89.2700 8.0000
89.2800 4.0000
89.2900 3.0000
89.3000 9.0000
89.3100 6.0000
89.3200 9.0000
89.3300 6.0000
89.3400 7.0000
89.3500 9.0000
89.3600 7.0000
89.3700 3.0000
89.3800 4.0000
89.3900 6.0000
89.4000 6.0000
89.4100 6.0000
89.4200 13.0000
89.4300 3.0000
89.4400 10.0000
89.4500 9.0000
89.4600 10.0000
89.4700 7.0000
89.4800 8.0000
89.4900 7.0000
89.5000 7.0000
89.5100 9.0000
89.5200 9.0000
89.5300 8.0000
89.5400 7.0000
89.5500 9.0000
89.5600 9.0000
89.5700 9.0000
89.5800 6.0000
89.5900 9.0000
89.6000 8.0000
89.6100 7.0000
89.6200 8.0000
89.6300 7.0000
89.6400 10.0000
89.6500 9.0000
89.6600 11.0000
89.6700 8.0000
89.6800 9.0000
89.6900 7.0000
89.7000 5.0000
89.7100 6.0000
89.7200 12.0000
89.7300 7.0000
89.7400 5.0000
89.7500 8.0000
89.7600 8.0000
89.7700 4.0000
89.7800 5.0000
89.7900 8.0000
89.8000 5.0000
89.8100 8.0000
89.8200 6.0000
89.8300 8.0000
89.8400 8.0000
89.8500 5.0000
89.8600 7.0000
89.8700 13.0000
89.8800 9.0000
89.8900 6.0000
89.9000 10.0000
89.9100 12.0000
89.9200 8.0000
89.9300 13.0000
89.9400 12.0000
89.9500 7.0000
89.9600 14.0000
89.9700 3.0000
89.9800 7.0000
89.9900 8.0000
90.0000 14.0000
90.0100 13.0000
90.0200 8.0000
90.0300 9.0000
90.0400 16.0000
90.0500 10.0000
90.0600 10.0000
90.0700 11.0000
90.0800 6.0000
90.0900 11.0000
90.1000 16.0000
90.1100 11.0000
90.1200 9.0000
90.1300 8.0000
90.1400 11.0000
90.1500 9.0000
90.1600 11.0000
90.1700 6.0000
90.1800 9.0000
90.1900 4.0000
90.2000 9.0000
90.2100 13.0000
90.2200 7.0000
90.2300 15.0000
90.2400 8.0000
90.2500 10.0000
90.2600 11.0000
90.2700 11.0000
90.2800 6.0000
90.2900 6.0000
90.3000 11.0000
90.3100 7.0000
90.3200 8.0000
90.3300 12.0000
90.3400 10.0000
90.3500 13.0000
90.3600 14.0000
90.3700 18.0000
90.3800 10.0000
90.3900 8.0000
90.4000 9.0000
90.4100 12.0000
90.4200 9.0000
90.4300 10.0000
90.4400 12.0000
90.4500 11.0000
90.4600 8.0000
90.4700 10.0000
90.4800 12.0000
90.4900 10.0000
90.5000 8.0000
90.5100 11.0000
90.5200 7.0000
90.5300 5.0000
90.5400 10.0000
90.5500 12.0000
90.5600 8.0000
90.5700 12.0000
90.5800 12.0000
90.5900 11.0000
90.6000 12.0000
90.6100 9.0000
90.6200 9.0000
90.6300 15.0000
90.6400 9.0000
90.6500 14.0000
90.6600 12.0000
90.6700 9.0000
90.6800 8.0000
90.6900 6.0000
90.7000 12.0000
90.7100 9.0000
90.7200 10.0000
90.7300 14.0000
90.7400 16.0000
90.7500 18.0000
90.7600 12.0000
90.7700 9.0000
90.7800 9.0000
90.7900 17.0000
90.8000 15.0000
90.8100 14.0000
90.8200 13.0000
90.8300 13.0000
90.8400 11.0000
90.8500 12.0000
90.8600 10.0000
90.8700 10.0000
90.8800 11.0000
90.8900 13.0000
90.9000 22.0000
90.9100 23.0000
90.9200 12.0000
90.9300 13.0000
90.9400 10.0000
90.9500 12.0000
90.9600 13.0000
90.9700 13.0000
90.9800 18.0000
90.9900 14.0000
91.0000 8.0000
91.0100 12.0000
91.0200 18.0000
91.0300 13.0000
91.0400 10.0000
91.0500 9.0000
91.0600 13.0000
91.0700 17.0000
91.0800 15.0000
91.0900 10.0000
91.1000 10.0000
91.1100 21.0000
91.1200 13.0000
91.1300 11.0000
91.1400 14.0000
91.1500 15.0000
91.1600 14.0000
91.1700 14.0000
91.1800 17.0000
91.1900 14.0000
91.2000 17.0000
91.2100 16.0000
91.2200 9.0000
91.2300 9.0000
91.2400 12.0000
91.2500 19.0000
91.2600 13.0000
91.2700 15.0000
91.2800 11.0000
91.2900 11.0000
91.3000 15.0000
91.3100 14.0000
91.3200 14.0000
91.3300 18.0000
91.3400 14.0000
91.3500 13.0000
91.3600 11.0000
91.3700 17.0000
91.3800 12.0000
91.3900 16.0000
91.4000 19.0000
91.4100 15.0000
91.4200 15.0000
91.4300 16.0000
91.4400 16.0000
91.4500 16.0000
91.4600 13.0000
91.4700 12.0000
91.4800 8.0000
91.4900 11.0000
91.5000 11.0000
91.5100 13.0000
91.5200 21.0000
91.5300 18.0000
91.5400 22.0000
91.5500 16.0000
91.5600 22.0000
91.5700 14.0000
91.5800 20.0000
91.5900 15.0000
91.6000 20.0000
91.6100 16.0000
91.6200 15.0000
91.6300 10.0000
91.6400 15.0000
91.6500 19.0000
91.6600 13.0000
91.6700 19.0000
91.6800 18.0000
91.6900 18.0000
91.7000 21.0000
91.7100 17.0000
91.7200 18.0000
91.7300 20.0000
91.7400 18.0000
91.7500 16.0000
91.7600 20.0000
91.7700 19.0000
91.7800 23.0000
91.7900 21.0000
91.8000 22.0000
91.8100 19.0000
91.8200 15.0000
91.8300 19.0000
91.8400 23.0000
91.8500 24.0000
91.8600 24.0000
91.8700 19.0000
91.8800 22.0000
91.8900 15.0000
91.9000 22.0000
91.9100 20.0000
91.9200 27.0000
91.9300 25.0000
91.9400 16.0000
91.9500 24.0000
91.9600 19.0000
91.9700 19.0000
91.9800 19.0000
91.9900 18.0000
92.0000 24.0000
92.0100 20.0000
92.0200 18.0000
92.0300 15.0000
92.0400 30.0000
92.0500 20.0000
92.0600 22.0000
92.0700 25.0000
92.0800 32.0000
92.0900 23.0000
92.1000 29.0000
92.1100 16.0000
92.1200 23.0000
92.1300 27.0000
92.1400 26.0000
92.1500 22.0000
92.1600 21.0000
92.1700 24.0000
92.1800 31.0000
92.1900 23.0000
92.2000 19.0000
92.2100 35.0000
92.2200 29.0000
92.2300 32.0000
92.2400 27.0000
92.2500 34.0000
92.2600 38.0000
92.2700 37.0000
92.2800 34.0000
92.2900 33.0000
92.3000 34.0000
92.3100 38.0000
92.3200 30.0000
92.3300 28.0000
92.3400 26.0000
92.3500 38.0000
92.3600 40.0000
92.3700 42.0000
92.3800 32.0000
92.3900 38.0000
92.4000 37.0000
92.4100 44.0000
92.4200 41.0000
92.4300 35.0000
92.4400 40.0000
92.4500 34.0000
92.4600 48.0000
92.4700 30.0000
92.4800 50.0000
92.4900 45.0000
92.5000 43.0000
92.5100 44.0000
92.5200 40.0000
92.5300 45.0000
92.5400 35.0000
92.5500 46.0000
92.5600 45.0000
92.5700 46.0000
92.5800 45.0000
92.5900 33.0000
92.6000 45.0000
92.6100 39.0000
92.6200 40.0000
92.6300 29.0000
92.6400 40.0000
92.6500 49.0000
92.6600 53.0000
92.6700 43.0000
92.6800 38.0000
92.6900 54.0000
92.7000 49.0000
92.7100 44.0000
92.7200 57.0000
92.7300 50.0000
92.7400 47.0000
92.7500 53.0000
92.7600 40.0000
92.7700 49.0000
92.7800 52.0000
92.7900 50.0000
92.8000 48.0000
92.8100 40.0000
92.8200 42.0000
92.8300 38.0000
92.8400 49.0000
92.8500 45.0000
92.8600 43.0000
92.8700 55.0000
92.8800 48.0000
92.8900 57.0000
92.9000 51.0000
92.9100 46.0000
92.9200 80.0000
92.9300 67.0000
92.9400 67.0000
92.9500 62.0000
92.9600 60.0000
92.9700 74.0000
92.9800 61.0000
92.9900 76.0000
93.0000 81.0000
93.0100 101.0000
93.0200 85.0000
93.0300 91.0000
93.0400 95.0000
93.0500 92.0000
93.0600 69.0000
93.0700 88.0000
93.0800 88.0000
93.0900 83.0000
93.1000 92.0000
93.1100 78.0000
93.1200 83.0000
93.1300 83.0000
93.1400 76.0000
93.1500 83.0000
93.1600 74.0000
93.1700 93.0000
93.1800 92.0000
93.1900 82.0000
93.2000 99.0000
93.2100 79.0000
93.2200 86.0000
93.2300 90.0000
93.2400 90.0000
93.2500 89.0000
93.2600 85.0000
93.2700 90.0000
93.2800 106.0000
93.2900 99.0000
93.3000 89.0000
93.3100 80.0000
93.3200 80.0000
93.3300 90.0000
93.3400 89.0000
93.3500 101.0000
93.3600 99.0000
93.3700 95.0000
93.3800 105.0000
93.3900 107.0000
93.4000 98.0000
93.4100 91.0000
93.4200 113.0000
93.4300 109.0000
93.4400 112.0000
93.4500 109.0000
93.4600 100.0000
93.4700 105.0000
93.4800 109.0000
93.4900 104.0000
93.5000 105.0000
93.5100 101.0000
93.5200 115.0000
93.5300 112.0000
93.5400 127.0000
93.5500 111.0000
93.5600 111.0000
93.5700 103.0000
93.5800 117.0000
93.5900 116.0000
93.6000 118.0000
93.6100 126.0000
93.6200 114.0000
93.6300 118.0000
93.6400 129.0000
93.6500 146.0000
93.6600 141.0000
93.6700 139.0000
93.6800 129.0000
93.6900 154.0000
93.7000 157.0000
93.7100 174.0000
93.7200 159.0000
93.7300 148.0000
93.7400 164.0000
93.7500 162.0000
93.7600 154.0000
93.7700 190.0000
93.7800 206.0000
93.7900 201.0000
93.8000 194.0000
93.8100 207.0000
93.8200 228.0000
93.8300 233.0000
93.8400 252.0000
93.8500 280.0000
93.8600 316.0000
93.8700 327.0000
93.8800 395.0000
93.8900 470.0000
93.9000 532.0000
93.9100 639.0000
93.9200 789.0000
93.9300 1034.0000
93.9400 1577.0000
93.9500 2528.0000
93.9600 4277.0000
93.9700 7060.0000
93.9800 12105.0000
93.9900 20515.0000
94.0000 35749.0000
94.0100 63559.0000
94.0200 110098.0000
94.0300 171995.0000
94.0400 231330.0000
94.0500 252016.0000
94.0600 227882.0000
94.0700 176121.0000
94.0800 119128.0000
94.0900 72459.0000
94.1000 40328.0000
94.1100 21288.0000
94.1200 10683.0000
94.1300 5637.0000
94.1400 3173.0000
94.1500 2017.0000
94.1600 1443.0000
94.1700 1094.0000
94.1800 791.0000
94.1900 633.0000
94.2000 483.0000
94.2100 374.0000
94.2200 345.0000
94.2300 296.0000
94.2400 301.0000
94.2500 279.0000
94.2600 256.0000
94.2700 259.0000
94.2800 222.0000
94.2900 221.0000
94.3000 203.0000
94.3100 239.0000
94.3200 222.0000
94.3300 197.0000
94.3400 202.0000
94.3500 200.0000
94.3600 153.0000
94.3700 166.0000
94.3800 143.0000
94.3900 168.0000
94.4000 153.0000
94.4100 136.0000
94.4200 138.0000
94.4300 137.0000
94.4400 146.0000
94.4500 132.0000
94.4600 136.0000
94.4700 135.0000
94.4800 143.0000
94.4900 122.0000
94.5000 122.0000
94.5100 133.0000
94.5200 131.0000
94.5300 107.0000
94.5400 106.0000
94.5500 96.0000
94.5600 108.0000
94.5700 111.0000
94.5800 120.0000
94.5900 92.0000
94.6000 106.0000
94.6100 98.0000
94.6200 86.0000
94.6300 103.0000
94.6400 113.0000
94.6500 109.0000
94.6600 106.0000
94.6700 115.0000
94.6800 102.0000
94.6900 102.0000
94.7000 105.0000
94.7100 94.0000
94.7200 92.0000
94.7300 97.0000
94.7400 89.0000
94.7500 85.0000
94.7600 115.0000
94.7700 100.0000
94.7800 95.0000
94.7900 84.0000
94.8000 91.0000
94.8100 91.0000
94.8200 100.0000
94.8300 93.0000
94.8400 84.0000
94.8500 97.0000
94.8600 87.0000
94.8700 89.0000
94.8800 62.0000
94.8900 93.0000
94.9000 70.0000
94.9100 70.0000
94.9200 92.0000
94.9300 77.0000
94.9400 66.0000
94.9500 74.0000
94.9600 64.0000
94.9700 75.0000
94.9800 82.0000
94.9900 66.0000
95.0000 83.0000
95.0100 85.0000
95.0200 82.0000
95.0300 101.0000
95.0400 86.0000
95.0500 91.0000
95.0600 88.0000
95.0700 70.0000
95.0800 97.0000
95.0900 79.0000
95.1000 75.0000
95.1100 79.0000
95.1200 78.0000
95.1300 64.0000
95.1400 69.0000
95.1500 60.0000
95.1600 61.0000
95.1700 60.0000
95.1800 55.0000
95.1900 42.0000
95.2000 55.0000
95.2100 40.0000
95.2200 51.0000
95.2300 51.0000
95.2400 55.0000
95.2500 46.0000
95.2600 57.0000
95.2700 48.0000
95.2800 49.0000
95.2900 40.0000
95.3000 49.0000
95.3100 45.0000
95.3200 44.0000
95.3300 51.0000
95.3400 36.0000
95.3500 42.0000
95.3600 52.0000
95.3700 36.0000
95.3800 43.0000
95.3900 48.0000
95.4000 45.0000
95.4100 36.0000
95.4200 40.0000
95.4300 35.0000
95.4400 45.0000
95.4500 48.0000
95.4600 50.0000
95.4700 44.0000
95.4800 43.0000
95.4900 49.0000
95.5000 47.0000
95.5100 38.0000
95.5200 47.0000
95.5300 42.0000
95.5400 49.0000
95.5500 44.0000
95.5600 43.0000
95.5700 51.0000
95.5800 41.0000
95.5900 30.0000
95.6000 29.0000
95.6100 37.0000
95.6200 37.0000
95.6300 48.0000
95.6400 30.0000
95.6500 37.0000
95.6600 25.0000
95.6700 28.0000
95.6800 37.0000
95.6900 32.0000
95.7000 48.0000
95.7100 32.0000
95.7200 36.0000
95.7300 27.0000
95.7400 45.0000
95.7500 33.0000
95.7600 30.0000
95.7700 33.0000
95.7800 30.0000
95.7900 27.0000
95.8000 33.0000
95.8100 32.0000
95.8200 30.0000
95.8300 34.0000
95.8400 28.0000
95.8500 32.0000
95.8600 29.0000
95.8700 34.0000
95.8800 37.0000
95.8900 31.0000
95.9000 31.0000
95.9100 30.0000
95.9200 29.0000
95.9300 30.0000
95.9400 23.0000
95.9500 19.0000
95.9600 21.0000
95.9700 21.0000
95.9800 26.0000
95.9900 20.0000
96.0000 27.0000
96.0100 22.0000
96.0200 26.0000
96.0300 17.0000
96.0400 24.0000
96.0500 20.0000
96.0600 27.0000
96.0700 20.0000
96.0800 32.0000
96.0900 16.0000
96.1000 28.0000
96.1100 18.0000
96.1200 23.0000
96.1300 29.0000
96.1400 31.0000
96.1500 17.0000
96.1600 24.0000
96.1700 23.0000
96.1800 18.0000
96.1900 16.0000
96.2000 29.0000
96.2100 19.0000
96.2200 17.0000
96.2300 24.0000
96.2400 17.0000
96.2500 26.0000
96.2600 16.0000
96.2700 16.0000
96.2800 15.0000
96.2900 19.0000
96.3000 18.0000
96.3100 15.0000
96.3200 16.0000
96.3300 23.0000
96.3400 15.0000
96.3500 23.0000
96.3600 22.0000
96.3700 24.0000
96.3800 30.0000
96.3900 17.0000
96.4000 19.0000
96.4100 19.0000
96.4200 14.0000
96.4300 16.0000
96.4400 22.0000
96.4500 19.0000
96.4600 25.0000
96.4700 22.0000
96.4800 26.0000
96.4900 21.0000
96.5000 18.0000
96.5100 13.0000
96.5200 18.0000
96.5300 16.0000
96.5400 17.0000
96.5500 12.0000
96.5600 14.0000
96.5700 15.0000
96.5800 16.0000
96.5900 18.0000
96.6000 15.0000
96.6100 23.0000
96.6200 19.0000
96.6300 22.0000
96.6400 18.0000
96.6500 21.0000
96.6600 17.0000
96.6700 18.0000
96.6800 12.0000
96.6900 22.0000
96.7000 12.0000
96.7100 24.0000
96.7200 19.0000
96.7300 21.0000
96.7400 15.0000
96.7500 16.0000
96.7600 14.0000
96.7700 17.0000
96.7800 20.0000
96.7900 16.0000
96.8000 13.0000
96.8100 16.0000
96.8200 16.0000
96.8300 9.0000
96.8400 13.0000
96.8500 12.0000
96.8600 15.0000
96.8700 16.0000
96.8800 11.0000
96.8900 9.0000
96.9000 10.0000
96.9100 10.0000
96.9200 15.0000
96.9300 13.0000
96.9400 19.0000
96.9500 12.0000
96.9600 15.0000
96.9700 10.0000
96.9800 15.0000
96.9900 19.0000
97.0000 18.0000
97.0100 14.0000
97.0200 15.0000
97.0300 13.0000
97.0400 15.0000
97.0500 15.0000
97.0600 17.0000
97.0700 14.0000
97.0800 16.0000
97.0900 16.0000
97.1000 13.0000
97.1100 14.0000
97.1200 10.0000
97.1300 8.0000
97.1400 7.0000
97.1500 8.0000
97.1600 10.0000
97.1700 19.0000
97.1800 7.0000
97.1900 11.0000
97.2000 16.0000
97.2100 15.0000
97.2200 16.0000
97.2300 14.0000
97.2400 11.0000
97.2500 13.0000
97.2600 11.0000
97.2700 19.0000
97.2800 9.0000
97.2900 18.0000
97.3000 7.0000
97.3100 13.0000
97.3200 16.0000
97.3300 19.0000
97.3400 11.0000
97.3500 13.0000
97.3600 16.0000
97.3700 8.0000
97.3800 14.0000
97.3900 16.0000
97.4000 10.0000
97.4100 7.0000
97.4200 10.0000
97.4300 16.0000
97.4400 9.0000
97.4500 22.0000
97.4600 17.0000
97.4700 12.0000
97.4800 14.0000
97.4900 13.0000
97.5000 13.0000
97.5100 10.0000
97.5200 9.0000
97.5300 13.0000
97.5400 9.0000
97.5500 12.0000
97.5600 9.0000
97.5700 13.0000
97.5800 16.0000
97.5900 15.0000
97.6000 7.0000
97.6100 12.0000
97.6200 8.0000
97.6300 12.0000
97.6400 10.0000
97.6500 16.0000
97.6600 7.0000
97.6700 9.0000
97.6800 8.0000
97.6900 9.0000
97.7000 18.0000
97.7100 12.0000
97.7200 13.0000
97.7300 9.0000
97.7400 17.0000
97.7500 9.0000
97.7600 15.0000
97.7700 8.0000
97.7800 9.0000
97.7900 13.0000
97.8000 13.0000
97.8100 10.0000
97.8200 12.0000
97.8300 7.0000
97.8400 13.0000
97.8500 9.0000
97.8600 9.0000
97.8700 7.0000
97.8800 14.0000
97.8900 9.0000
97.9000 14.0000
97.9100 6.0000
97.9200 10.0000
97.9300 11.0000
97.9400 13.0000
97.9500 13.0000
97.9600 8.0000
97.9700 7.0000
97.9800 7.0000
97.9900 6.0000
98.0000 7.0000
98.0100 9.0000
98.0200 13.0000
98.0300 7.0000
98.0400 5.0000
98.0500 15.0000
98.0600 10.0000
98.0700 8.0000
98.0800 6.0000
98.0900 9.0000
98.1000 9.0000
98.1100 13.0000
98.1200 8.0000
98.1300 7.0000
98.1400 3.0000
98.1500 11.0000
98.1600 7.0000
98.1700 6.0000
98.1800 8.0000
98.1900 8.0000
98.2000 10.0000
98.2100 13.0000
98.2200 13.0000
98.2300 10.0000
98.2400 8.0000
98.2500 9.0000
98.2600 5.0000
98.2700 6.0000
98.2800 12.0000
98.2900 11.0000
98.3000 13.0000
98.3100 6.0000
98.3200 5.0000
98.3300 13.0000
98.3400 9.0000
98.3500 9.0000
98.3600 13.0000
98.3700 7.0000
98.3800 7.0000
98.3900 8.0000
98.4000 9.0000
98.4100 5.0000
98.4200 7.0000
98.4300 8.0000
98.4400 6.0000
98.4500 4.0000
98.4600 8.0000
98.4700 5.0000
98.4800 7.0000
98.4900 2.0000
98.5000 9.0000
98.5100 5.0000
98.5200 7.0000
98.5300 7.0000
98.5400 8.0000
98.5500 14.0000
98.5600 9.0000
98.5700 5.0000
98.5800 8.0000
98.5900 5.0000
98.6000 7.0000
98.6100 6.0000
98.6200 6.0000
98.6300 4.0000
98.6400 8.0000
98.6500 7.0000
98.6600 10.0000
98.6700 7.0000
98.6800 8.0000
98.6900 4.0000
98.7000 5.0000
98.7100 2.0000
98.7200 8.0000
98.7300 5.0000
98.7400 10.0000
98.7500 9.0000
98.7600 9.0000
98.7700 8.0000
98.7800 6.0000
98.7900 6.0000
98.8000 7.0000
98.8100 5.0000
98.8200 2.0000
98.8300 9.0000
98.8400 10.0000
98.8500 6.0000
98.8600 6.0000
98.8700 6.0000
98.8800 5.0000
98.8900 8.0000
98.9000 2.0000
98.9100 3.0000
98.9200 6.0000
98.9300 7.0000
98.9400 9.0000
98.9500 6.0000
98.9600 5.0000
98.9700 10.0000
98.9800 7.0000
98.9900 6.0000
99.0000 5.0000
99.0100 6.0000
99.0200 5.0000
99.0300 8.0000
99.0400 3.0000
99.0500 5.0000
99.0600 6.0000
99.0700 8.0000
99.0800 4.0000
99.0900 5.0000
99.1000 7.0000
99.1100 1.0000
99.1200 9.0000
99.1300 7.0000
99.1400 5.0000
99.1500 9.0000
99.1600 9.0000
99.1700 6.0000
99.1800 6.0000
99.1900 6.0000
99.2000 7.0000
99.2100 3.0000
99.2200 6.0000
99.2300 11.0000
99.2400 7.0000
99.2500 5.0000
99.2600 7.0000
99.2700 3.0000
99.2800 5.0000
99.2900 5.0000
99.3000 6.0000
99.3100 6.0000
99.3200 8.0000
99.3300 15.0000
99.3400 5.0000
99.3500 5.0000
99.3600 7.0000
99.3700 9.0000
99.3800 8.0000
99.3900 7.0000
99.4000 10.0000
99.4100 7.0000
99.4200 5.0000
99.4300 8.0000
99.4400 6.0000
99.4500 5.0000
99.4600 6.0000
99.4700 9.0000
99.4800 4.0000
99.4900 5.0000
99.5000 4.0000
99.5100 3.0000
99.5200 5.0000
99.5300 0.0000
99.5400 6.0000
99.5500 1.0000
99.5600 8.0000
99.5700 7.0000
99.5800 7.0000
99.5900 7.0000
99.6000 5.0000
99.6100 9.0000
99.6200 8.0000
99.6300 5.0000
99.6400 5.0000
99.6500 3.0000
99.6600 6.0000
99.6700 10.0000
99.6800 7.0000
99.6900 3.0000
99.7000 3.0000
99.7100 7.0000
99.7200 3.0000
99.7300 8.0000
99.7400 7.0000
99.7500 9.0000
99.7600 6.0000
99.7700 6.0000
99.7800 4.0000
99.7900 1.0000
99.8000 9.0000
99.8100 7.0000
99.8200 6.0000
99.8300 10.0000
99.8400 5.0000
99.8500 6.0000
99.8600 6.0000
99.8700 5.0000
99.8800 9.0000
99.8900 6.0000
99.9000 7.0000
99.9100 6.0000
99.9200 7.0000
99.9300 9.0000
99.9400 6.0000
99.9500 4.0000
99.9600 8.0000
99.9700 2.0000
99.9800 4.0000
99.9900 3.0000
100.0000 9.0000
100.0100 7.0000
100.0200 3.0000
100.0300 8.0000
100.0400 6.0000
100.0500 8.0000
100.0600 6.0000
100.0700 4.0000
100.0800 5.0000
100.0900 8.0000
100.1000 8.0000
100.1100 6.0000
100.1200 5.0000
100.1300 6.0000
100.1400 4.0000
100.1500 2.0000
100.1600 5.0000
100.1700 5.0000
100.1800 6.0000
100.1900 7.0000
100.2000 4.0000
100.2100 9.0000
100.2200 3.0000
100.2300 7.0000
100.2400 5.0000
100.2500 7.0000
100.2600 7.0000
100.2700 6.0000
100.2800 7.0000
100.2900 5.0000
100.3000 7.0000
100.3100 5.0000
100.3200 6.0000
100.3300 3.0000
100.3400 4.0000
100.3500 6.0000
100.3600 7.0000
100.3700 7.0000
100.3800 8.0000
100.3900 9.0000
100.4000 5.0000
100.4100 5.0000
100.4200 3.0000
100.4300 5.0000
100.4400 7.0000
100.4500 4.0000
100.4600 8.0000
100.4700 6.0000
100.4800 3.0000
100.4900 5.0000
100.5000 6.0000
100.5100 4.0000
100.5200 8.0000
100.5300 6.0000
100.5400 3.0000
100.5500 6.0000
100.5600 8.0000
100.5700 5.0000
100.5800 7.0000
100.5900 5.0000
100.6000 6.0000
100.6100 3.0000
100.6200 4.0000
100.6300 3.0000
100.6400 3.0000
100.6500 4.0000
100.6600 5.0000
100.6700 5.0000
100.6800 4.0000
100.6900 3.0000
100.7000 3.0000
100.7100 7.0000
100.7200 5.0000
100.7300 4.0000
100.7400 10.0000
100.7500 8.0000
100.7600 4.0000
100.7700 6.0000
100.7800 8.0000
100.7900 6.0000
100.8000 7.0000
100.8100 6.0000
100.8200 5.0000
100.8300 6.0000
100.8400 5.0000
100.8500 2.0000
100.8600 2.0000
100.8700 5.0000
100.8800 4.0000
100.8900 2.0000
100.9000 2.0000
100.9100 3.0000
100.9200 3.0000
100.9300 2.0000
100.9400 7.0000
100.9500 5.0000
100.9600 3.0000
100.9700 7.0000
100.9800 5.0000
100.9900 4.0000
101.0000 5.0000
101.0100 7.0000
101.0200 5.0000
101.0300 4.0000
101.0400 5.0000
101.0500 5.0000
101.0600 0.0000
101.0700 3.0000
101.0800 5.0000
101.0900 3.0000
101.1000 4.0000
101.1100 3.0000
101.1200 2.0000
101.1300 7.0000
101.1400 7.0000
101.1500 4.0000
101.1600 2.0000
101.1700 3.0000
101.1800 3.0000
101.1900 1.0000
101.2000 2.0000
101.2100 11.0000
101.2200 3.0000
101.2300 3.0000
101.2400 7.0000
101.2500 8.0000
101.2600 8.0000
101.2700 4.0000
101.2800 4.0000
101.2900 5.0000
101.3000 4.0000
101.3100 3.0000
101.3200 6.0000
101.3300 2.0000
101.3400 6.0000
101.3500 9.0000
101.3600 4.0000
101.3700 3.0000
101.3800 3.0000
101.3900 3.0000
101.4000 4.0000
101.4100 7.0000
101.4200 6.0000
101.4300 5.0000
101.4400 4.0000
101.4500 4.0000
101.4600 3.0000
101.4700 3.0000
101.4800 4.0000
101.4900 3.0000
101.5000 4.0000
101.5100 3.0000
101.5200 3.0000
101.5300 0.0000
101.5400 3.0000
101.5500 3.0000
101.5600 6.0000
101.5700 4.0000
101.5800 1.0000
101.5900 1.0000
101.6000 3.0000
101.6100 7.0000
101.6200 5.0000
101.6300 4.0000
101.6400 6.0000
101.6500 5.0000
101.6600 4.0000
101.6700 4.0000
101.6800 6.0000
101.6900 3.0000
101.7000 2.0000
101.7100 7.0000
101.7200 4.0000
101.7300 2.0000
101.7400 1.0000
101.7500 3.0000
101.7600 3.0000
101.7700 4.0000
101.7800 2.0000
101.7900 2.0000
101.8000 2.0000
101.8100 3.0000
101.8200 8.0000
101.8300 4.0000
101.8400 3.0000
101.8500 2.0000
101.8600 1.0000
101.8700 2.0000
101.8800 6.0000
101.8900 6.0000
101.9000 1.0000
101.9100 4.0000
101.9200 3.0000
101.9300 6.0000
101.9400 4.0000
101.9500 2.0000
101.9600 6.0000
101.9700 4.0000
101.9800 3.0000
101.9900 3.0000
102.0000 6.0000
102.0100 9.0000
102.0200 5.0000
102.0300 5.0000
102.0400 3.0000
102.0500 2.0000
102.0600 3.0000
102.0700 4.0000
102.0800 6.0000
102.0900 2.0000
102.1000 5.0000
102.1100 4.0000
102.1200 2.0000
102.1300 6.0000
102.1400 5.0000
102.1500 4.0000
102.1600 1.0000
102.1700 2.0000
102.1800 4.0000
102.1900 3.0000
102.2000 4.0000
102.2100 8.0000
102.2200 4.0000
102.2300 2.0000
102.2400 6.0000
102.2500 3.0000
102.2600 2.0000
102.2700 0.0000
102.2800 3.0000
102.2900 1.0000
102.3000 2.0000
102.3100 1.0000
102.3200 3.0000
102.3300 4.0000
102.3400 1.0000
102.3500 2.0000
102.3600 2.0000
102.3700 3.0000
102.3800 7.0000
102.3900 5.0000
102.4000 7.0000
102.4100 5.0000
102.4200 4.0000
102.4300 5.0000
102.4400 3.0000
102.4500 4.0000
102.4600 4.0000
102.4700 2.0000
102.4800 0.0000
102.4900 4.0000
102.5000 2.0000
102.5100 5.0000
102.5200 3.0000
102.5300 1.0000
102.5400 8.0000
102.5500 4.0000
102.5600 4.0000
102.5700 2.0000
102.5800 1.0000
102.5900 6.0000
102.6000 3.0000
102.6100 4.0000
102.6200 3.0000
102.6300 3.0000
102.6400 2.0000
102.6500 5.0000
102.6600 8.0000
102.6700 4.0000
102.6800 8.0000
102.6900 3.0000
102.7000 5.0000
102.7100 7.0000
102.7200 3.0000
102.7300 1.0000
102.7400 3.0000
102.7500 5.0000
102.7600 6.0000
102.7700 8.0000
102.7800 5.0000
102.7900 2.0000
102.8000 8.0000
102.8100 5.0000
102.8200 2.0000
102.8300 1.0000
102.8400 2.0000
102.8500 3.0000
102.8600 5.0000
102.8700 8.0000
102.8800 5.0000
102.8900 5.0000
102.9000 4.0000
102.9100 3.0000
102.9200 2.0000
102.9300 6.0000
102.9400 4.0000
102.9500 5.0000
102.9600 5.0000
102.9700 4.0000
102.9800 4.0000
102.9900 6.0000
103.0000 6.0000
103.0100 3.0000
103.0200 6.0000
103.0300 2.0000
103.0400 0.0000
103.0500 3.0000
103.0600 5.0000
103.0700 2.0000
103.0800 7.0000
103.0900 5.0000
103.1000 1.0000
103.1100 5.0000
103.1200 1.0000
103.1300 10.0000
103.1400 5.0000
103.1500 3.0000
103.1600 4.0000
103.1700 2.0000
103.1800 7.0000
103.1900 1.0000
103.2000 7.0000
103.2100 6.0000
103.2200 5.0000
103.2300 5.0000
103.2400 3.0000
103.2500 4.0000
103.2600 2.0000
103.2700 5.0000
103.2800 5.0000
103.2900 2.0000
103.3000 6.0000
103.3100 2.0000
103.3200 2.0000
103.3300 5.0000
103.3400 4.0000
103.3500 4.0000
103.3600 3.0000
103.3700 5.0000
103.3800 3.0000
103.3900 8.0000
103.4000 4.0000
103.4100 2.0000
103.4200 4.0000
103.4300 2.0000
103.4400 2.0000
103.4500 3.0000
103.4600 7.0000
103.4700 6.0000
103.4800 4.0000
103.4900 3.0000
103.5000 5.0000
103.5100 3.0000
103.5200 3.0000
103.5300 3.0000
103.5400 3.0000
103.5500 3.0000
103.5600 7.0000
103.5700 2.0000
103.5800 0.0000
103.5900 2.0000
103.6000 2.0000
103.6100 3.0000
103.6200 1.0000
103.6300 5.0000
103.6400 5.0000
103.6500 5.0000
103.6600 0.0000
103.6700 3.0000
103.6800 2.0000
103.6900 1.0000
103.7000 6.0000
103.7100 6.0000
103.7200 6.0000
103.7300 3.0000
103.7400 1.0000
103.7500 1.0000
103.7600 7.0000
103.7700 5.0000
103.7800 4.0000
103.7900 4.0000
103.8000 2.0000
103.8100 3.0000
103.8200 1.0000
103.8300 5.0000
103.8400 5.0000
103.8500 4.0000
103.8600 4.0000
103.8700 2.0000
103.8800 7.0000
103.8900 3.0000
103.9000 6.0000
103.9100 7.0000
103.9200 6.0000
103.9300 5.0000
103.9400 5.0000
103.9500 3.0000
103.9600 6.0000
103.9700 5.0000
103.9800 0.0000
103.9900 1.0000
104.0000 3.0000
104.0100 2.0000
104.0200 2.0000
104.0300 6.0000
104.0400 2.0000
104.0500 4.0000
104.0600 6.0000
104.0700 2.0000
104.0800 1.0000
104.0900 1.0000
104.1000 4.0000
104.1100 3.0000
104.1200 5.0000
104.1300 3.0000
104.1400 6.0000
104.1500 5.0000
104.1600 5.0000
104.1700 7.0000
104.1800 3.0000
104.1900 7.0000
104.2000 6.0000
104.2100 6.0000
104.2200 0.0000
104.2300 6.0000
104.2400 4.0000
104.2500 3.0000
104.2600 7.0000
104.2700 3.0000
104.2800 7.0000
104.2900 7.0000
104.3000 7.0000
104.3100 3.0000
104.3200 7.0000
104.3300 2.0000
104.3400 4.0000
104.3500 7.0000
104.3600 1.0000
104.3700 3.0000
104.3800 1.0000
104.3900 5.0000
104.4000 4.0000
104.4100 2.0000
104.4200 2.0000
104.4300 8.0000
104.4400 5.0000
104.4500 5.0000
104.4600 9.0000
104.4700 8.0000
104.4800 1.0000
104.4900 1.0000
104.5000 5.0000
104.5100 3.0000
104.5200 4.0000
104.5300 3.0000
104.5400 3.0000
104.5500 4.0000
104.5600 2.0000
104.5700 4.0000
104.5800 6.0000
104.5900 8.0000
104.6000 3.0000
104.6100 3.0000
104.6200 10.0000
104.6300 3.0000
104.6400 1.0000
104.6500 1.0000
104.6600 5.0000
104.6700 3.0000
104.6800 2.0000
104.6900 4.0000
104.7000 7.0000
104.7100 0.0000
104.7200 3.0000
104.7300 1.0000
104.7400 2.0000
104.7500 1.0000
104.7600 1.0000
104.7700 3.0000
104.7800 6.0000
104.7900 8.0000
104.8000 1.0000
104.8100 3.0000
104.8200 6.0000
104.8300 2.0000
104.8400 4.0000
104.8500 4.0000
104.8600 5.0000
104.8700 1.0000
104.8800 5.0000
104.8900 4.0000
104.9000 3.0000
104.9100 3.0000
104.9200 1.0000
104.9300 4.0000
104.9400 3.0000
104.9500 2.0000
104.9600 4.0000
104.9700 2.0000
104.9800 0.0000
104.9900 1.0000
105.0000 3.0000
105.0100 2.0000
105.0200 0.0000
105.0300 2.0000
105.0400 2.0000
105.0500 4.0000
105.0600 6.0000
105.0700 3.0000
105.0800 2.0000
105.0900 5.0000
105.1000 3.0000
105.1100 7.0000
105.1200 3.0000
105.1300 6.0000
105.1400 2.0000
105.1500 3.0000
105.1600 4.0000
105.1700 3.0000
105.1800 5.0000
105.1900 5.0000
105.2000 7.0000
105.2100 2.0000
105.2200 4.0000
105.2300 2.0000
105.2400 5.0000
105.2500 1.0000
105.2600 3.0000
105.2700 1.0000
105.2800 4.0000
105.2900 3.0000
105.3000 5.0000
105.3100 3.0000
105.3200 5.0000
105.3300 1.0000
105.3400 2.0000
105.3500 5.0000
105.3600 4.0000
105.3700 4.0000
105.3800 3.0000
105.3900 2.0000
105.4000 2.0000
105.4100 2.0000
105.4200 5.0000
105.4300 4.0000
105.4400 4.0000
105.4500 4.0000
105.4600 6.0000
105.4700 2.0000
105.4800 1.0000
105.4900 6.0000
105.5000 5.0000
105.5100 4.0000
105.5200 2.0000
105.5300 6.0000
105.5400 2.0000
105.5500 1.0000
105.5600 7.0000
105.5700 4.0000
105.5800 6.0000
105.5900 3.0000
105.6000 3.0000
105.6100 3.0000
105.6200 4.0000
105.6300 5.0000
105.6400 3.0000
105.6500 5.0000
105.6600 4.0000
105.6700 4.0000
105.6800 5.0000
105.6900 1.0000
105.7000 2.0000
105.7100 5.0000
105.7200 2.0000
105.7300 6.0000
105.7400 1.0000
105.7500 4.0000
105.7600 3.0000
105.7700 5.0000
105.7800 5.0000
105.7900 5.0000
105.8000 5.0000
105.8100 4.0000
105.8200 4.0000
105.8300 1.0000
105.8400 9.0000
105.8500 3.0000
105.8600 4.0000
105.8700 1.0000
105.8800 2.0000
105.8900 3.0000
105.9000 4.0000
105.9100 1.0000
105.9200 5.0000
105.9300 5.0000
105.9400 3.0000
105.9500 4.0000
105.9600 2.0000
105.9700 2.0000
105.9800 5.0000
105.9900 2.0000
106.0000 4.0000
106.0100 3.0000
106.0200 3.0000
106.0300 2.0000
106.0400 8.0000
106.0500 5.0000
106.0600 2.0000
106.0700 2.0000
106.0800 6.0000
106.0900 4.0000
106.1000 5.0000
106.1100 2.0000
106.1200 0.0000
106.1300 6.0000
106.1400 4.0000
106.1500 1.0000
106.1600 4.0000
106.1700 3.0000
106.1800 7.0000
106.1900 4.0000
106.2000 4.0000
106.2100 4.0000
106.2200 5.0000
106.2300 5.0000
106.2400 3.0000
106.2500 2.0000
106.2600 1.0000
106.2700 3.0000
106.2800 3.0000
106.2900 1.0000
106.3000 3.0000
106.3100 10.0000
106.3200 2.0000
106.3300 2.0000
106.3400 2.0000
106.3500 2.0000
106.3600 3.0000
106.3700 3.0000
106.3800 5.0000
106.3900 2.0000
106.4000 4.0000
106.4100 3.0000
106.4200 3.0000
106.4300 1.0000
106.4400 3.0000
106.4500 4.0000
106.4600 5.0000
106.4700 3.0000
106.4800 3.0000
106.4900 3.0000
106.5000 4.0000
106.5100 4.0000
106.5200 3.0000
106.5300 2.0000
106.5400 5.0000
106.5500 1.0000
106.5600 3.0000
106.5700 1.0000
106.5800 1.0000
106.5900 2.0000
106.6000 4.0000
106.6100 0.0000
106.6200 2.0000
106.6300 1.0000
106.6400 2.0000
106.6500 8.0000
106.6600 1.0000
106.6700 2.0000
106.6800 3.0000
106.6900 5.0000
106.7000 1.0000
106.7100 1.0000
106.7200 6.0000
106.7300 5.0000
106.7400 3.0000
106.7500 4.0000
106.7600 3.0000
106.7700 3.0000
106.7800 2.0000
106.7900 1.0000
106.8000 2.0000
106.8100 2.0000
106.8200 3.0000
106.8300 1.0000
106.8400 2.0000
106.8500 5.0000
106.8600 3.0000
106.8700 2.0000
106.8800 4.0000
106.8900 2.0000
106.9000 5.0000
106.9100 3.0000
106.9200 3.0000
106.9300 0.0000
106.9400 2.0000
106.9500 3.0000
106.9600 2.0000
106.9700 3.0000
106.9800 4.0000
106.9900 2.0000
107.0000 0.0000
107.0100 1.0000
107.0200 5.0000
107.0300 2.0000
107.0400 4.0000
107.0500 4.0000
107.0600 3.0000
107.0700 4.0000
107.0800 4.0000
107.0900 7.0000
107.1000 3.0000
107.1100 3.0000
107.1200 3.0000
107.1300 2.0000
107.1400 5.0000
107.1500 5.0000
107.1600 2.0000
107.1700 4.0000
107.1800 4.0000
107.1900 6.0000
107.2000 3.0000
107.2100 3.0000
107.2200 4.0000
107.2300 3.0000
107.2400 2.0000
107.2500 4.0000
107.2600 5.0000
107.2700 7.0000
107.2800 3.0000
107.2900 3.0000
107.3000 3.0000
107.3100 3.0000
107.3200 2.0000
107.3300 4.0000
107.3400 6.0000
107.3500 3.0000
107.3600 3.0000
107.3700 5.0000
107.3800 3.0000
107.3900 2.0000
107.4000 3.0000
107.4100 2.0000
107.4200 0.0000
107.4300 4.0000
107.4400 1.0000
107.4500 4.0000
107.4600 4.0000
107.4700 3.0000
107.4800 0.0000
107.4900 7.0000
107.5000 1.0000
107.5100 4.0000
107.5200 6.0000
107.5300 3.0000
107.5400 4.0000
107.5500 3.0000
107.5600 3.0000
107.5700 4.0000
107.5800 0.0000
107.5900 2.0000
107.6000 3.0000
107.6100 4.0000
107.6200 3.0000
107.6300 4.0000
107.6400 2.0000
107.6500 4.0000
107.6600 5.0000
107.6700 2.0000
107.6800 2.0000
107.6900 3.0000
107.7000 4.0000
107.7100 4.0000
107.7200 2.0000
107.7300 8.0000
107.7400 3.0000
107.7500 3.0000
107.7600 6.0000
107.7700 1.0000
107.7800 1.0000
107.7900 4.0000
107.8000 3.0000
107.8100 4.0000
107.8200 2.0000
107.8300 4.0000
107.8400 3.0000
107.8500 3.0000
107.8600 3.0000
107.8700 7.0000
107.8800 5.0000
107.8900 3.0000
107.9000 6.0000
107.9100 3.0000
107.9200 2.0000
107.9300 4.0000
107.9400 3.0000
107.9500 4.0000
107.9600 4.0000
107.9700 0.0000
107.9800 1.0000
107.9900 5.0000
108.0000 2.0000
108.0100 0.0000
108.0200 0.0000
108.0300 0.0000
108.0400 2.0000
108.0500 4.0000
108.0600 1.0000
108.0700 4.0000
108.0800 7.0000
108.0900 3.0000
108.1000 3.0000
108.1100 3.0000
108.1200 1.0000
108.1300 4.0000
108.1400 1.0000
108.1500 3.0000
108.1600 3.0000
108.1700 3.0000
108.1800 0.0000
108.1900 1.0000
108.2000 3.0000
108.2100 3.0000
108.2200 2.0000
108.2300 3.0000
108.2400 3.0000
108.2500 3.0000
108.2600 2.0000
108.2700 0.0000
108.2800 2.0000
108.2900 3.0000
108.3000 3.0000
108.3100 4.0000
108.3200 2.0000
108.3300 2.0000
108.3400 2.0000
108.3500 1.0000
108.3600 2.0000
108.3700 5.0000
108.3800 4.0000
108.3900 3.0000
108.4000 4.0000
108.4100 2.0000
108.4200 0.0000
108.4300 2.0000
108.4400 5.0000
108.4500 2.0000
108.4600 5.0000
108.4700 3.0000
108.4800 0.0000
108.4900 2.0000
108.5000 4.0000
108.5100 2.0000
108.5200 2.0000
108.5300 3.0000
108.5400 4.0000
108.5500 3.0000
108.5600 2.0000
108.5700 4.0000
108.5800 5.0000
108.5900 1.0000
108.6000 5.0000
108.6100 3.0000
108.6200 2.0000
108.6300 4.0000
108.6400 1.0000
108.6500 3.0000
108.6600 2.0000
108.6700 2.0000
108.6800 5.0000
108.6900 5.0000
108.7000 0.0000
108.7100 2.0000
108.7200 4.0000
108.7300 3.0000
108.7400 3.0000
108.7500 9.0000
108.7600 1.0000
108.7700 2.0000
108.7800 3.0000
108.7900 5.0000
108.8000 4.0000
108.8100 1.0000
108.8200 1.0000
108.8300 0.0000
108.8400 5.0000
108.8500 5.0000
108.8600 3.0000
108.8700 3.0000
108.8800 3.0000
108.8900 2.0000
108.9000 4.0000
108.9100 1.0000
108.9200 2.0000
108.9300 2.0000
108.9400 1.0000
108.9500 2.0000
108.9600 4.0000
108.9700 4.0000
108.9800 3.0000
108.9900 3.0000
109.0000 3.0000
109.0100 3.0000
109.0200 4.0000
109.0300 5.0000
109.0400 3.0000
109.0500 5.0000
109.0600 0.0000
109.0700 3.0000
109.0800 4.0000
109.0900 1.0000
109.1000 2.0000
109.1100 1.0000
109.1200 3.0000
109.1300 2.0000
109.1400 4.0000
109.1500 6.0000
109.1600 9.0000
109.1700 2.0000
109.1800 5.0000
109.1900 3.0000
109.2000 4.0000
109.2100 1.0000
109.2200 3.0000
109.2300 3.0000
109.2400 2.0000
109.2500 3.0000
109.2600 3.0000
109.2700 2.0000
109.2800 1.0000
109.2900 1.0000
109.3000 7.0000
109.3100 3.0000
109.3200 4.0000
109.3300 7.0000
109.3400 7.0000
109.3500 4.0000
109.3600 6.0000
109.3700 5.0000
109.3800 4.0000
109.3900 7.0000
109.4000 7.0000
109.4100 7.0000
109.4200 5.0000
109.4300 3.0000
109.4400 1.0000
109.4500 5.0000
109.4600 0.0000
109.4700 2.0000
109.4800 3.0000
109.4900 5.0000
109.5000 1.0000
109.5100 8.0000
109.5200 6.0000
109.5300 7.0000
109.5400 1.0000
109.5500 4.0000
109.5600 0.0000
109.5700 2.0000
109.5800 1.0000
109.5900 4.0000
109.6000 3.0000
109.6100 4.0000
109.6200 2.0000
109.6300 1.0000
109.6400 6.0000
109.6500 6.0000
109.6600 7.0000
109.6700 2.0000
109.6800 2.0000
109.6900 4.0000
109.7000 2.0000
109.7100 2.0000
109.7200 3.0000
109.7300 2.0000
109.7400 1.0000
109.7500 5.0000
109.7600 4.0000
109.7700 3.0000
109.7800 4.0000
109.7900 3.0000
109.8000 4.0000
109.8100 5.0000
109.8200 2.0000
109.8300 1.0000
109.8400 4.0000
109.8500 3.0000
109.8600 5.0000
109.8700 4.0000
109.8800 4.0000
109.8900 1.0000
109.9000 5.0000
109.9100 2.0000
109.9200 2.0000
109.9300 6.0000
109.9400 7.0000
109.9500 2.0000
109.9600 3.0000
109.9700 0.0000
109.9800 3.0000
109.9900 4.0000
110.0000 1.0000
110.0100 5.0000
110.0200 1.0000
110.0300 4.0000
110.0400 2.0000
110.0500 3.0000
110.0600 3.0000
110.0700 1.0000
110.0800 2.0000
110.0900 4.0000
110.1000 4.0000
110.1100 7.0000
110.1200 2.0000
110.1300 5.0000
110.1400 2.0000
110.1500 1.0000
110.1600 1.0000
110.1700 4.0000
110.1800 4.0000
110.1900 4.0000
110.2000 5.0000
110.2100 5.0000
110.2200 6.0000
110.2300 2.0000
110.2400 2.0000
110.2500 4.0000
110.2600 4.0000
110.2700 1.0000
110.2800 6.0000
110.2900 8.0000
110.3000 4.0000
110.3100 4.0000
110.3200 3.0000
110.3300 2.0000
110.3400 3.0000
110.3500 3.0000
110.3600 1.0000
110.3700 4.0000
110.3800 4.0000
110.3900 6.0000
110.4000 4.0000
110.4100 5.0000
110.4200 3.0000
110.4300 5.0000
110.4400 7.0000
110.4500 0.0000
110.4600 1.0000
110.4700 4.0000
110.4800 1.0000
110.4900 1.0000
110.5000 0.0000
110.5100 2.0000
110.5200 4.0000
110.5300 4.0000
110.5400 3.0000
110.5500 1.0000
110.5600 0.0000
110.5700 2.0000
110.5800 1.0000
110.5900 6.0000
110.6000 5.0000
110.6100 3.0000
110.6200 5.0000
110.6300 3.0000
110.6400 4.0000
110.6500 2.0000
110.6600 3.0000
110.6700 2.0000
110.6800 5.0000
110.6900 4.0000
110.7000 5.0000
110.7100 2.0000
110.7200 3.0000
110.7300 3.0000
110.7400 1.0000
110.7500 4.0000
110.7600 3.0000
110.7700 2.0000
110.7800 2.0000
110.7900 3.0000
110.8000 1.0000
110.8100 2.0000
110.8200 4.0000
110.8300 3.0000
110.8400 3.0000
110.8500 4.0000
110.8600 4.0000
110.8700 2.0000
110.8800 3.0000
110.8900 1.0000
110.9000 2.0000
110.9100 1.0000
110.9200 4.0000
110.9300 2.0000
110.9400 3.0000
110.9500 4.0000
110.9600 4.0000
110.9700 3.0000
110.9800 2.0000
110.9900 3.0000
111.0000 6.0000
111.0100 0.0000
111.0200 1.0000
111.0300 3.0000
111.0400 5.0000
111.0500 7.0000
111.0600 3.0000
111.0700 5.0000
111.0800 4.0000
111.0900 5.0000
111.1000 5.0000
111.1100 1.0000
111.1200 2.0000
111.1300 5.0000
111.1400 4.0000
111.1500 4.0000
111.1600 2.0000
111.1700 4.0000
111.1800 2.0000
111.1900 4.0000
111.2000 7.0000
111.2100 5.0000
111.2200 3.0000
111.2300 0.0000
111.2400 1.0000
111.2500 5.0000
111.2600 7.0000
111.2700 4.0000
111.2800 4.0000
111.2900 3.0000
111.3000 2.0000
111.3100 3.0000
111.3200 2.0000
111.3300 5.0000
111.3400 3.0000
111.3500 4.0000
111.3600 3.0000
111.3700 4.0000
111.3800 4.0000
111.3900 6.0000
111.4000 5.0000
111.4100 3.0000
111.4200 2.0000
111.4300 6.0000
111.4400 5.0000
111.4500 3.0000
111.4600 4.0000
111.4700 6.0000
111.4800 2.0000
111.4900 3.0000
111.5000 2.0000
111.5100 4.0000
111.5200 4.0000
111.5300 4.0000
111.5400 1.0000
111.5500 2.0000
111.5600 10.0000
111.5700 7.0000
111.5800 3.0000
111.5900 3.0000
111.6000 3.0000
111.6100 7.0000
111.6200 3.0000
111.6300 3.0000
111.6400 7.0000
111.6500 4.0000
111.6600 3.0000
111.6700 3.0000
111.6800 3.0000
111.6900 3.0000
111.7000 2.0000
111.7100 2.0000
111.7200 3.0000
111.7300 5.0000
111.7400 5.0000
111.7500 6.0000
111.7600 3.0000
111.7700 1.0000
111.7800 5.0000
111.7900 4.0000
111.8000 3.0000
111.8100 0.0000
111.8200 4.0000
111.8300 5.0000
111.8400 5.0000
111.8500 2.0000
111.8600 4.0000
111.8700 4.0000
111.8800 4.0000
111.8900 6.0000
111.9000 4.0000
111.9100 1.0000
111.9200 3.0000
111.9300 1.0000
111.9400 3.0000
111.9500 1.0000
111.9600 3.0000
111.9700 2.0000
111.9800 4.0000
111.9900 1.0000
112.0000 1.0000
112.0100 3.0000
112.0200 3.0000
112.0300 5.0000
112.0400 5.0000
112.0500 4.0000
112.0600 7.0000
112.0700 3.0000
112.0800 4.0000
112.0900 0.0000
112.1000 3.0000
112.1100 2.0000
112.1200 2.0000
112.1300 8.0000
112.1400 4.0000
112.1500 1.0000
112.1600 3.0000
112.1700 1.0000
112.1800 2.0000
112.1900 3.0000
112.2000 6.0000
112.2100 2.0000
112.2200 0.0000
112.2300 3.0000
112.2400 3.0000
112.2500 4.0000
112.2600 7.0000
112.2700 0.0000
112.2800 1.0000
112.2900 1.0000
112.3000 4.0000
112.3100 5.0000
112.3200 3.0000
112.3300 2.0000
112.3400 2.0000
112.3500 4.0000
112.3600 3.0000
112.3700 1.0000
112.3800 1.0000
112.3900 3.0000
112.4000 3.0000
112.4100 5.0000
112.4200 0.0000
112.4300 1.0000
112.4400 3.0000
112.4500 4.0000
112.4600 1.0000
112.4700 5.0000
112.4800 2.0000
112.4900 3.0000
112.5000 3.0000
112.5100 5.0000
112.5200 2.0000
112.5300 3.0000
112.5400 1.0000
112.5500 1.0000
112.5600 6.0000
112.5700 6.0000
112.5800 3.0000
112.5900 3.0000
112.6000 4.0000
112.6100 3.0000
112.6200 3.0000
112.6300 1.0000
112.6400 4.0000
112.6500 2.0000
112.6600 5.0000
112.6700 3.0000
112.6800 2.0000
112.6900 3.0000
112.7000 2.0000
112.7100 1.0000
112.7200 2.0000
112.7300 1.0000
112.7400 2.0000
112.7500 5.0000
112.7600 3.0000
112.7700 5.0000
112.7800 2.0000
112.7900 2.0000
112.8000 2.0000
112.8100 3.0000
112.8200 4.0000
112.8300 2.0000
112.8400 3.0000
112.8500 0.0000
112.8600 1.0000
112.8700 3.0000
112.8800 5.0000
112.8900 6.0000
112.9000 1.0000
112.9100 4.0000
112.9200 4.0000
112.9300 2.0000
112.9400 0.0000
112.9500 1.0000
112.9600 2.0000
112.9700 5.0000
112.9800 6.0000
112.9900 2.0000
113.0000 1.0000
113.0100 1.0000
113.0200 2.0000
113.0300 6.0000
113.0400 4.0000
113.0500 4.0000
113.0600 2.0000
113.0700 3.0000
113.0800 3.0000
113.0900 3.0000
113.1000 4.0000
113.1100 4.0000
113.1200 3.0000
113.1300 2.0000
113.1400 4.0000
113.1500 5.0000
113.1600 2.0000
113.1700 2.0000
113.1800 2.0000
113.1900 2.0000
113.2000 6.0000
113.2100 4.0000
113.2200 3.0000
113.2300 4.0000
113.2400 2.0000
113.2500 4.0000
113.2600 5.0000
113.2700 2.0000
113.2800 2.0000
113.2900 4.0000
113.3000 2.0000
113.3100 3.0000
113.3200 2.0000
113.3300 5.0000
113.3400 1.0000
113.3500 2.0000
113.3600 2.0000
113.3700 4.0000
113.3800 1.0000
113.3900 6.0000
113.4000 2.0000
113.4100 3.0000
113.4200 5.0000
113.4300 5.0000
113.4400 2.0000
113.4500 3.0000
113.4600 4.0000
113.4700 1.0000
113.4800 2.0000
113.4900 4.0000
113.5000 3.0000
113.5100 3.0000
113.5200 3.0000
113.5300 4.0000
113.5400 2.0000
113.5500 0.0000
113.5600 2.0000
113.5700 6.0000
113.5800 2.0000
113.5900 6.0000
113.6000 2.0000
113.6100 0.0000
113.6200 5.0000
113.6300 4.0000
113.6400 4.0000
113.6500 1.0000
113.6600 1.0000
113.6700 1.0000
113.6800 4.0000
113.6900 1.0000
113.7000 2.0000
113.7100 2.0000
113.7200 4.0000
113.7300 2.0000
113.7400 6.0000
113.7500 2.0000
113.7600 2.0000
113.7700 2.0000
113.7800 1.0000
113.7900 0.0000
113.8000 3.0000
113.8100 4.0000
113.8200 2.0000
113.8300 3.0000
113.8400 2.0000
113.8500 5.0000
113.8600 2.0000
113.8700 6.0000
113.8800 2.0000
113.8900 5.0000
113.9000 3.0000
113.9100 1.0000
113.9200 4.0000
113.9300 6.0000
113.9400 2.0000
113.9500 4.0000
113.9600 3.0000
113.9700 3.0000
113.9800 5.0000
113.9900 3.0000
114.0000 6.0000
114.0100 3.0000
114.0200 3.0000
114.0300 4.0000
114.0400 2.0000
114.0500 4.0000
114.0600 2.0000
114.0700 5.0000
114.0800 3.0000
114.0900 2.0000
114.1000 4.0000
114.1100 3.0000
114.1200 4.0000
114.1300 2.0000
114.1400 2.0000
114.1500 1.0000
114.1600 0.0000
114.1700 1.0000
114.1800 1.0000
114.1900 2.0000
114.2000 5.0000
114.2100 3.0000
114.2200 3.0000
114.2300 3.0000
114.2400 3.0000
114.2500 6.0000
114.2600 2.0000
114.2700 1.0000
114.2800 3.0000
114.2900 1.0000
114.3000 3.0000
114.3100 3.0000
114.3200 5.0000
114.3300 6.0000
114.3400 6.0000
114.3500 2.0000
114.3600 2.0000
114.3700 4.0000
114.3800 3.0000
114.3900 3.0000
114.4000 3.0000
114.4100 5.0000
114.4200 2.0000
114.4300 3.0000
114.4400 3.0000
114.4500 2.0000
114.4600 3.0000
114.4700 2.0000
114.4800 3.0000
114.4900 5.0000
114.5000 3.0000
114.5100 1.0000
114.5200 3.0000
114.5300 3.0000
114.5400 2.0000
114.5500 2.0000
114.5600 2.0000
114.5700 2.0000
114.5800 3.0000
114.5900 4.0000
114.6000 6.0000
114.6100 4.0000
114.6200 5.0000
114.6300 4.0000
114.6400 2.0000
114.6500 4.0000
114.6600 1.0000
114.6700 1.0000
114.6800 2.0000
114.6900 2.0000
114.7000 0.0000
114.7100 1.0000
114.7200 3.0000
114.7300 4.0000
114.7400 2.0000
114.7500 6.0000
114.7600 1.0000
114.7700 2.0000
114.7800 2.0000
114.7900 3.0000
114.8000 1.0000
114.8100 4.0000
114.8200 5.0000
114.8300 5.0000
114.8400 6.0000
114.8500 3.0000
114.8600 2.0000
114.8700 2.0000
114.8800 7.0000
114.8900 4.0000
114.9000 4.0000
114.9100 0.0000
114.9200 2.0000
114.9300 1.0000
114.9400 1.0000
114.9500 1.0000
114.9600 2.0000
114.9700 3.0000
114.9800 5.0000
114.9900 4.0000
115.0000 3.0000
115.0100 3.0000
115.0200 4.0000
115.0300 1.0000
115.0400 2.0000
115.0500 3.0000
115.0600 5.0000
115.0700 5.0000
115.0800 7.0000
115.0900 4.0000
115.1000 1.0000
115.1100 2.0000
115.1200 3.0000
115.1300 1.0000
115.1400 3.0000
115.1500 5.0000
115.1600 5.0000
115.1700 3.0000
115.1800 3.0000
115.1900 3.0000
115.2000 5.0000
115.2100 1.0000
115.2200 1.0000
115.2300 1.0000
115.2400 2.0000
115.2500 2.0000
115.2600 3.0000
115.2700 5.0000
115.2800 2.0000
115.2900 3.0000
115.3000 3.0000
115.3100 0.0000
115.3200 7.0000
115.3300 2.0000
115.3400 0.0000
115.3500 2.0000
115.3600 2.0000
115.3700 3.0000
115.3800 2.0000
115.3900 6.0000
115.4000 8.0000
115.4100 2.0000
115.4200 3.0000
115.4300 5.0000
115.4400 3.0000
115.4500 2.0000
115.4600 5.0000
115.4700 1.0000
115.4800 0.0000
115.4900 4.0000
115.5000 3.0000
115.5100 7.0000
115.5200 2.0000
115.5300 6.0000
115.5400 2.0000
115.5500 2.0000
115.5600 6.0000
115.5700 3.0000
115.5800 1.0000
115.5900 4.0000
115.6000 4.0000
115.6100 0.0000
115.6200 3.0000
115.6300 3.0000
115.6400 1.0000
115.6500 0.0000
115.6600 1.0000
115.6700 2.0000
115.6800 2.0000
115.6900 6.0000
115.7000 3.0000
115.7100 2.0000
115.7200 7.0000
115.7300 2.0000
115.7400 3.0000
115.7500 3.0000
115.7600 2.0000
115.7700 2.0000
115.7800 4.0000
115.7900 1.0000
115.8000 4.0000
115.8100 2.0000
115.8200 1.0000
115.8300 4.0000
115.8400 2.0000
115.8500 4.0000
115.8600 2.0000
115.8700 0.0000
115.8800 3.0000
115.8900 2.0000
115.9000 5.0000
115.9100 4.0000
115.9200 4.0000
115.9300 3.0000
115.9400 7.0000
115.9500 2.0000
115.9600 3.0000
115.9700 0.0000
115.9800 0.0000
115.9900 1.0000
116.0000 4.0000
116.0100 1.0000
116.0200 3.0000
116.0300 1.0000
116.0400 0.0000
116.0500 2.0000
116.0600 3.0000
116.0700 4.0000
116.0800 5.0000
116.0900 4.0000
116.1000 5.0000
116.1100 3.0000
116.1200 4.0000
116.1300 1.0000
116.1400 0.0000
116.1500 4.0000
116.1600 2.0000
116.1700 2.0000
116.1800 4.0000
116.1900 3.0000
116.2000 5.0000
116.2100 4.0000
116.2200 6.0000
116.2300 1.0000
116.2400 4.0000
116.2500 2.0000
116.2600 1.0000
116.2700 3.0000
116.2800 1.0000
116.2900 2.0000
116.3000 4.0000
116.3100 3.0000
116.3200 3.0000
116.3300 3.0000
116.3400 1.0000
116.3500 1.0000
116.3600 0.0000
116.3700 5.0000
116.3800 4.0000
116.3900 2.0000
116.4000 1.0000
116.4100 3.0000
116.4200 2.0000
116.4300 2.0000
116.4400 2.0000
116.4500 3.0000
116.4600 5.0000
116.4700 3.0000
116.4800 5.0000
116.4900 3.0000
116.5000 2.0000
116.5100 3.0000
116.5200 3.0000
116.5300 0.0000
116.5400 4.0000
116.5500 6.0000
116.5600 5.0000
116.5700 2.0000
116.5800 6.0000
116.5900 3.0000
116.6000 2.0000
116.6100 3.0000
116.6200 2.0000
116.6300 1.0000
116.6400 3.0000
116.6500 3.0000
116.6600 3.0000
116.6700 5.0000
116.6800 6.0000
116.6900 2.0000
116.7000 3.0000
116.7100 6.0000
116.7200 3.0000
116.7300 2.0000
116.7400 2.0000
116.7500 3.0000
116.7600 3.0000
116.7700 0.0000
116.7800 2.0000
116.7900 3.0000
116.8000 4.0000
116.8100 3.0000
116.8200 1.0000
116.8300 3.0000
116.8400 4.0000
116.8500 6.0000
116.8600 3.0000
116.8700 4.0000
116.8800 1.0000
116.8900 8.0000
116.9000 2.0000
116.9100 5.0000
116.9200 5.0000
116.9300 3.0000
116.9400 4.0000
116.9500 3.0000
116.9600 4.0000
116.9700 0.0000
116.9800 4.0000
116.9900 4.0000
117.0000 2.0000
117.0100 4.0000
117.0200 3.0000
117.0300 2.0000
117.0400 3.0000
117.0500 3.0000
117.0600 3.0000
117.0700 4.0000
117.0800 6.0000
117.0900 2.0000
117.1000 5.0000
117.1100 1.0000
117.1200 6.0000
117.1300 4.0000
117.1400 3.0000
117.1500 3.0000
117.1600 5.0000
117.1700 4.0000
117.1800 2.0000
117.1900 0.0000
117.2000 6.0000
117.2100 3.0000
117.2200 3.0000
117.2300 1.0000
117.2400 3.0000
117.2500 1.0000
117.2600 2.0000
117.2700 3.0000
117.2800 2.0000
117.2900 1.0000
117.3000 5.0000
117.3100 2.0000
117.3200 2.0000
117.3300 5.0000
117.3400 3.0000
117.3500 1.0000
117.3600 2.0000
117.3700 3.0000
117.3800 5.0000
117.3900 2.0000
117.4000 4.0000
117.4100 4.0000
117.4200 3.0000
117.4300 2.0000
117.4400 5.0000
117.4500 3.0000
117.4600 7.0000
117.4700 6.0000
117.4800 1.0000
117.4900 5.0000
117.5000 2.0000
117.5100 2.0000
117.5200 1.0000
117.5300 3.0000
117.5400 1.0000
117.5500 2.0000
117.5600 4.0000
117.5700 6.0000
117.5800 1.0000
117.5900 3.0000
117.6000 7.0000
117.6100 2.0000
117.6200 2.0000
117.6300 3.0000
117.6400 6.0000
117.6500 2.0000
117.6600 4.0000
117.6700 1.0000
117.6800 3.0000
117.6900 5.0000
117.7000 3.0000
117.7100 3.0000
117.7200 2.0000
117.7300 4.0000
117.7400 3.0000
117.7500 2.0000
117.7600 1.0000
117.7700 5.0000
117.7800 3.0000
117.7900 5.0000
117.8000 3.0000
117.8100 2.0000
117.8200 2.0000
117.8300 3.0000
117.8400 2.0000
117.8500 3.0000
117.8600 7.0000
117.8700 3.0000
117.8800 2.0000
117.8900 6.0000
117.9000 2.0000
117.9100 2.0000
117.9200 5.0000
117.9300 2.0000
117.9400 2.0000
117.9500 5.0000
117.9600 2.0000
117.9700 2.0000
117.9800 7.0000
117.9900 6.0000
118.0000 3.0000
118.0100 5.0000
118.0200 6.0000
118.0300 2.0000
118.0400 1.0000
118.0500 3.0000
118.0600 1.0000
118.0700 2.0000
118.0800 2.0000
118.0900 3.0000
118.1000 2.0000
118.1100 2.0000
118.1200 2.0000
118.1300 4.0000
118.1400 4.0000
118.1500 1.0000
118.1600 1.0000
118.1700 1.0000
118.1800 1.0000
118.1900 2.0000
118.2000 4.0000
118.2100 2.0000
118.2200 3.0000
118.2300 6.0000
118.2400 1.0000
118.2500 3.0000
118.2600 4.0000
118.2700 5.0000
118.2800 3.0000
118.2900 1.0000
118.3000 2.0000
118.3100 3.0000
118.3200 2.0000
118.3300 3.0000
118.3400 4.0000
118.3500 1.0000
118.3600 2.0000
118.3700 1.0000
118.3800 4.0000
118.3900 8.0000
118.4000 1.0000
118.4100 3.0000
118.4200 0.0000
118.4300 2.0000
118.4400 5.0000
118.4500 1.0000
118.4600 1.0000
118.4700 4.0000
118.4800 4.0000
118.4900 1.0000
118.5000 5.0000
118.5100 4.0000
118.5200 2.0000
118.5300 4.0000
118.5400 2.0000
118.5500 2.0000
118.5600 2.0000
118.5700 2.0000
118.5800 3.0000
118.5900 1.0000
118.6000 2.0000
118.6100 2.0000
118.6200 1.0000
118.6300 4.0000
118.6400 2.0000
118.6500 1.0000
118.6600 1.0000
118.6700 2.0000
118.6800 2.0000
118.6900 3.0000
118.7000 6.0000
118.7100 4.0000
118.7200 3.0000
118.7300 3.0000
118.7400 4.0000
118.7500 1.0000
118.7600 5.0000
118.7700 2.0000
118.7800 4.0000
118.7900 3.0000
118.8000 1.0000
118.8100 2.0000
118.8200 6.0000
118.8300 9.0000
118.8400 2.0000
118.8500 2.0000
118.8600 3.0000
118.8700 5.0000
118.8800 2.0000
118.8900 3.0000
118.9000 1.0000
118.9100 1.0000
118.9200 1.0000
118.9300 1.0000
118.9400 1.0000
118.9500 0.0000
118.9600 2.0000
118.9700 0.0000
118.9800 3.0000
118.9900 6.0000
119.0000 3.0000
119.0100 3.0000
119.0200 0.0000
119.0300 1.0000
119.0400 4.0000
119.0500 0.0000
119.0600 1.0000
119.0700 2.0000
119.0800 2.0000
119.0900 0.0000
119.1000 3.0000
119.1100 2.0000
119.1200 3.0000
119.1300 3.0000
119.1400 2.0000
119.1500 2.0000
119.1600 3.0000
119.1700 4.0000
119.1800 4.0000
119.1900 4.0000
119.2000 3.0000
119.2100 3.0000
119.2200 3.0000
119.2300 0.0000
119.2400 2.0000
119.2500 1.0000
119.2600 2.0000
119.2700 0.0000
119.2800 0.0000
119.2900 2.0000
119.3000 0.0000
119.3100 3.0000
119.3200 3.0000
119.3300 4.0000
119.3400 0.0000
119.3500 1.0000
119.3600 6.0000
119.3700 1.0000
119.3800 1.0000
119.3900 1.0000
119.4000 2.0000
119.4100 5.0000
119.4200 4.0000
119.4300 6.0000
119.4400 3.0000
119.4500 7.0000
119.4600 3.0000
119.4700 5.0000
119.4800 4.0000
119.4900 5.0000
119.5000 2.0000
119.5100 3.0000
119.5200 5.0000
119.5300 1.0000
119.5400 2.0000
119.5500 2.0000
119.5600 4.0000
119.5700 4.0000
119.5800 5.0000
119.5900 7.0000
119.6000 3.0000
119.6100 3.0000
119.6200 1.0000
119.6300 1.0000
119.6400 4.0000
119.6500 4.0000
119.6600 5.0000
119.6700 4.0000
119.6800 2.0000
119.6900 2.0000
119.7000 3.0000
119.7100 7.0000
119.7200 6.0000
119.7300 4.0000
119.7400 2.0000
119.7500 5.0000
119.7600 1.0000
119.7700 3.0000
119.7800 3.0000
119.7900 0.0000
119.8000 3.0000
119.8100 3.0000
119.8200 8.0000
119.8300 4.0000
119.8400 3.0000
119.8500 4.0000
119.8600 4.0000
119.8700 6.0000
119.8800 3.0000
119.8900 5.0000
119.9000 2.0000
119.9100 4.0000
119.9200 2.0000
119.9300 1.0000
119.9400 2.0000
119.9500 2.0000
119.9600 5.0000
119.9700 2.0000
119.9800 5.0000
119.9900 2.0000
120.0000 4.0000
